0 0.4811919882755251 0.4079140205178309
0.0017864259998532361 0.431362970200293 0.4176844162188569
0.0020758820000992273 0.4137762579384465 0.4303859306301905
0.0023173219997261185 0.3981436248168051 0.4401563263312165
0.002597835000415216 0.38739618954567656 0.4509037616023448
0.002841051999894262 0.37469467513434296 0.45969711773326827
0.003145192999909341 0.36687835857352225 0.4665363947239862
0.003391002999705961 0.3629702002931119 0.4733756717147044
0.003612090999922657 0.35906204201270153 0.47923790913532005
0.0038436790000559995 0.35906204201270153 0.47923790913532005
0.004119488000469573 0.36199316072300936 0.4763067904250122
0.0043647980000969255 0.3639472398632144 0.47435271128480694
0.004608774000189442 0.36199316072300936 0.47239863214460187
0.004824714000278618 0.3639472398632144 0.46262823644357587
0.005048560999966867 0.36003908158280407 0.45969711773326827
0.005255537999801163 0.358085002442599 0.45676599902296044
0.005501237000316905 0.3512457254518808 0.457743038593063
0.005748565000430972 0.34440644846116264 0.457743038593063
0.00594937599998957 0.3385442110405472 0.4538348803126526
0.006150186000013491 0.33463605276013686 0.4587200781631655
0.00635175600018556 0.33463605276013686 0.4587200781631655
0.006551196999680542 0.3365901319003419 0.45969711773326827
0.006750303999979224 0.3385442110405472 0.46262823644357587
0.006948318000468134 0.3404982901807523 0.4665363947239862
0.007148499000322772 0.33952125061064975 0.4704445530043966
0.007347050000134914 0.3424523693209576 0.47728382999511476
0.0075453429999470245 0.3404982901807523 0.4851001465559355
0.007744319999801519 0.3336590131900341 0.4938935026868587
0.007943890000206011 0.31998045920859797 0.5065950170981925
0.00814257100046234 0.30727894479726436 0.5183194919394236
0.008341362999999546 0.293600390815828 0.5261358085002443
0.008543248000023596 0.2867611138251098 0.5232046897899365
0.008742947000428103 0.2838299951148022 0.5192965315095261
0.00894538700049452 0.2857840742550073 0.5095261358085001
0.009144642999672215 0.29262335124572547 0.5026868588177822
0.009343824000097811 0.29653150952613583 0.4929164631167562
0.00961550299962255 0.30727894479726436 0.4831460674157304
0.009818405999794777 0.3160723009281876 0.4811919882755251
0.01001669800007221 0.3258426966292134 0.47923790913532005
0.010216546000265225 0.3365901319003419 0.4753297508549097
0.010414301000309933 0.35417684416218864 0.46946751343429405
0.010631723000187776 0.3707865168539326 0.4636052760136786
0.010833811000338756 0.38446507083536874 0.45481191988275516
0.011033085000235587 0.40009770395701016 0.44406448461162684
0.011232857999857515 0.41182217879824123 0.4401563263312165
0.011430984000071476 0.42745481191988266 0.4333170493404983
0.011631369000497216 0.44211040547142155 0.43624816805080613
0.011842290000458888 0.45676599902296044 0.43429408891060084
0.012051841000356944 0.4733756717147044 0.43624816805080613
0.012266910999642278 0.4938935026868587 0.431362970200293
0.0124897770001553 0.512457254518808 0.42452369320957506
0.012708438999652572 0.5310210063507572 0.41670737664875435
0.012954230000104872 0.5476306790425012 0.4059599413776258
0.013163540000277862 0.5613092330239375 0.39716658524670256
0.01336288800030161 0.5749877870053737 0.3883732291157791
0.013611252999908174 0.5906204201270151 0.38153395212506114
0.013814711999657447 0.6023448949682462 0.37176355642403514
0.014015171000210103 0.6101612115290669 0.3756717147044455
0.014216554999620712 0.6199316072300929 0.38739618954567656
0.014415366000321228 0.621885686370298 0.403028822667318
0.014615584000239323 0.6257938446507083 0.4079140205178309
0.014815616999840131 0.6277479237909136 0.41963849535906195
0.015014075999715715 0.621885686370298 0.42745481191988266
0.015214386000479863 0.6189545676599901 0.4333170493404983
0.015419956000187085 0.6160234489496825 0.4352711284807034
0.015622674000042025 0.6189545676599901 0.44211040547142155
0.015821521999896504 0.6101612115290669 0.4460185637518319
0.016019276999941212 0.6072300928187591 0.4479726428920372
0.016217772999880253 0.6033219345383487 0.44992672203224227
0.016416213000411517 0.5974596971177333 0.44699560332193444
0.01661307999984274 0.5935515388373229 0.4460185637518319
0.016811131000395108 0.5915974596971176 0.4460185637518319
0.01700949699988996 0.5857352222765022 0.44211040547142155
0.01720756699978665 0.5818270639960919 0.43624816805080613
0.01740687799974694 0.5828041035661944 0.4235466536394723
0.01767503900009615 0.5818270639960919 0.4157303370786516
0.017905923000398616 0.5759648265754762 0.39912066438690763
0.01813171499998134 0.5730337078651686 0.38153395212506114
0.01837487600005261 0.5681485100146555 0.36980947728383007
0.01861105599982693 0.5652173913043479 0.3531998045920859
0.018833422000170685 0.5554469956033219 0.358085002442599
0.01906341700032499 0.5476306790425012 0.37469467513434296
0.01928795000003447 0.5368832437713726 0.4040058622374205
0.01950920400031464 0.5251587689301416 0.44211040547142155
0.01973105199976999 0.5105031753786029 0.4782608695652173
0.019956416999775684 0.4948705422569615 0.5232046897899365
0.02022539300014614 0.4763067904250122 0.5456765999022961
0.020514980000370997 0.45676599902296044 0.5495847581827065
0.020830305999879783 0.4450415241817294 0.5300439667806547
0.021201057999860495 0.4264777723497801 0.5075720566682951
0.02146507100042072 0.41670737664875435 0.48900830483634583
0.021713158000238764 0.40889106008793363 0.46458231558378116
0.021940227999948547 0.3961895456765998 0.44894968246213973
0.022169742000187398 0.3834880312652662 0.4430874450415241
0.02239560700036236 0.36492427943331696 0.4352711284807034
0.02262826900005166 0.35906204201270153 0.43429408891060084
0.022842487000161782 0.35222276502198335 0.42940889106008795
0.023054186000081245 0.34733756717147046 0.4264777723497801
0.023260867000317376 0.3424523693209576 0.4255007327796776
0.023480585000470455 0.34636052760136793 0.4206155349291647
0.023696913000094355 0.3414753297508548 0.42159257449926724
0.0239156309999089 0.34440644846116264 0.4176844162188569
0.024137903999871924 0.34733756717147046 0.4176844162188569
0.02435890000015206 0.36199316072300936 0.41475329750854906
0.024573505999796907 0.3639472398632144 0.42452369320957506
0.024796001999675354 0.36687835857352225 0.4255007327796776
0.025005442000292533 0.3678553981436248 0.4255007327796776
0.025220085000000836 0.3688324377137273 0.44211040547142155
0.025436302999878535 0.3678553981436248 0.43624816805080613
0.0257030009997834 0.3678553981436248 0.4382022471910112
0.025980792000154906 0.3639472398632144 0.4450415241817294
0.02624795300016558 0.36003908158280407 0.4430874450415241
0.026538983999671473 0.36199316072300936 0.45188080117244755
0.027089823999631335 0.34440644846116264 0.4802149487054226
0.028197690000524744 0.3434294088910601 0.4684904738641915
0.029231817000436422 0.3551538837322912 0.4851001465559355
0.029914005999671645 0.3903273082559844 0.4948705422569615
0.03057597400038503 0.4206155349291647 0.48998534440644836
0.0311116109996874 0.43722520762090866 0.48412310698583294
0.031619563000276685 0.4460185637518319 0.47728382999511476
0.03228247500010184 0.4704445530043966 0.46262823644357587
0.032816631000059715 0.5065950170981925 0.4352711284807034
0.03316390100007993 0.5212506106497312 0.4186614557889594
0.033420396000110486 0.5329750854909623 0.39716658524670256
0.033801388000028965 0.5456765999022961 0.3952125061064973
0.03403275399978156 0.5495847581827065 0.40889106008793363
0.03425156400044216 0.540791402051783 0.42452369320957506
0.03446407800038287 0.5437225207620908 0.4479726428920372
0.034704091000094195 0.5427454811919883 0.46458231558378116
0.03492736499993043 0.5534929164631168 0.47435271128480694
0.03514074899976549 0.540791402051783 0.47923790913532005
0.03535968899996078 0.540791402051783 0.48216902784562765
0.03558142499969108 0.5456765999022961 0.4753297508549097
0.03583767899999657 0.5466536394723986 0.4665363947239862
0.0361261910002213 0.5437225207620908 0.45676599902296044
0.03637535300003947 0.5476306790425012 0.4479726428920372
0.036585015000127896 0.540791402051783 0.44211040547142155
0.03679995499987854 0.5388373229115779 0.43917928676111373
0.03701013600039005 0.5388373229115779 0.431362970200293
0.03804211500028032 0.5300439667806547 0.40889106008793363
0.038641584000288276 0.5280898876404494 0.43722520762090866
0.03901965000022756 0.5232046897899365 0.4704445530043966
0.03928831099983654 0.522227650219834 0.48998534440644836
0.03951647299982142 0.5232046897899365 0.5036638983878847
0.03972809800052346 0.5144113336590133 0.5056179775280898
0.0399427789998299 0.5114802149487054 0.5007327796775769
0.04016749600032199 0.5065950170981925 0.48216902784562765
0.04038939899965044 0.5036638983878847 0.4606741573033708
0.04060454299997218 0.49975574010747437 0.4460185637518319
0.040823964000082924 0.4948705422569615 0.4255007327796776
0.041037570999833406 0.4938935026868587 0.41670737664875435
0.041271973000220896 0.4831460674157304 0.40889106008793363
0.04164427999967302 0.45676599902296044 0.40693698094772834
0.04189075700014655 0.4382022471910112 0.412799218368344
0.04210462199989706 0.4176844162188569 0.41670737664875435
0.042318785000134085 0.3961895456765998 0.4235466536394723
0.04254555799980153 0.37957987298485585 0.43429408891060084
0.042759664000186604 0.3678553981436248 0.441133365901319
0.04302191799979482 0.36199316072300936 0.4479726428920372
0.043239079999693786 0.3551538837322912 0.4587200781631655
0.043450224000480375 0.3512457254518808 0.46165119687347334
0.043668256999808364 0.35417684416218864 0.4636052760136786
0.04388021500017203 0.3551538837322912 0.45969711773326827
0.04409819200009224 0.3610161211529066 0.4528578407425501
0.04431859499982238 0.35906204201270153 0.45188080117244755
0.044602441000279214 0.3639472398632144 0.45481191988275516
0.04487269400033256 0.358085002442599 0.46165119687347334
0.0451303560002998 0.3551538837322912 0.467513434294089
0.0455051810004079 0.3424523693209576 0.4587200781631655
0.046020947999750206 0.3453834880312652 0.45188080117244755
0.046313071999975364 0.3551538837322912 0.44699560332193444
0.04659580699990329 0.3756717147044455 0.4430874450415241
0.04684052399989014 0.38935026868588185 0.43722520762090866
0.04705076000027475 0.4108451392281387 0.4323400097703958
0.047267181999814056 0.42256961406936977 0.4333170493404983
0.04748567699971318 0.43429408891060084 0.44211040547142155
0.04770263499995053 0.43624816805080613 0.44406448461162684
0.04791933500018786 0.43624816805080613 0.44406448461162684
0.0481307560003188 0.431362970200293 0.44894968246213973
0.048356029000387935 0.41670737664875435 0.4538348803126526
0.04862615300044126 0.4137762579384465 0.4538348803126526
0.0491707339997447 0.3805569125549584 0.45969711773326827
0.04961911400005192 0.3786028334147533 0.46262823644357587
0.049852979999741365 0.3776257938446508 0.4704445530043966
0.05007225300050777 0.3786028334147533 0.4733756717147044
0.050285358999644814 0.38251099169516367 0.47728382999511476
0.05050231800032634 0.38739618954567656 0.47435271128480694
0.05097862300044653 0.40986809965803617 0.47142159257449934
0.05133550400023523 0.42452369320957506 0.4802149487054226
0.051562165999712306 0.4323400097703958 0.47239863214460187
0.0517796800004362 0.4450415241817294 0.4831460674157304
0.052015156999914325 0.4538348803126526 0.47923790913532005
0.05223533699972904 0.46458231558378116 0.4782608695652173
0.05249146200003452 0.4831460674157304 0.4704445530043966
0.05270206800014421 0.49975574010747437 0.4636052760136786
0.05291169399970386 0.5114802149487054 0.4538348803126526
0.05311946700021508 0.522227650219834 0.4460185637518319
0.053319943999667885 0.5271128480703469 0.43624816805080613
0.05352397699971334 0.5388373229115779 0.4333170493404983
0.05378913799995644 0.5437225207620908 0.43429408891060084
0.054013208000469604 0.5476306790425012 0.44211040547142155
0.05422455500047363 0.5515388373229115 0.44894968246213973
0.05443421699965256 0.550561797752809 0.4509037616023448
0.0546648979998281 0.5486077186126037 0.45481191988275516
0.05489418900015153 0.5515388373229115 0.45481191988275516
0.05514699900049891 0.5564240351734244 0.4557889594528579
0.05539788300029613 0.5583781143136297 0.44699560332193444
0.05567650600005436 0.5603321934538348 0.4460185637518319
0.05595611199987616 0.567171470444553 0.43917928676111373
0.05623460599963437 0.5642403517342451 0.4450415241817294
0.05654669199975615 0.5642403517342451 0.457743038593063
0.05683109300025535 0.5652173913043479 0.4665363947239862
0.05712753199986764 0.5603321934538348 0.4684904738641915
0.057395247999920684 0.5534929164631168 0.4733756717147044
0.05777501800002938 0.5486077186126037 0.4606741573033708
0.0581174179997106 0.5417684416218858 0.4479726428920372
0.05838865399982751 0.5319980459208598 0.4323400097703958
0.058684628999799315 0.5163654127992183 0.41963849535906195
0.058962068000255385 0.5056179775280898 0.403028822667318
0.05925617200045963 0.4909623839765511 0.38935026868588185
0.05949183400025504 0.47923790913532005 0.38739618954567656
0.059714515000450774 0.4733756717147044 0.3834880312652662
0.05992860300011671 0.4684904738641915 0.38739618954567656
0.0601800419999563 0.46262823644357587 0.38935026868588185
0.06040688899975066 0.45969711773326827 0.39423546653639474
0.06062334800026292 0.4538348803126526 0.4059599413776258
0.06084045399984461 0.4509037616023448 0.4157303370786516
0.061055819999637606 0.44992672203224227 0.42256961406936977
0.061274390000107815 0.4450415241817294 0.42159257449926724
0.061487218999900506 0.441133365901319 0.42452369320957506
0.061746880000100646 0.441133365901319 0.42452369320957506
0.062030041000070923 0.4333170493404983 0.42256961406936977
0.06234547799977008 0.4176844162188569 0.4264777723497801
0.0626407689996995 0.40889106008793363 0.4352711284807034
0.0629329660005169 0.40009770395701016 0.44406448461162684
0.06322377499964205 0.39228138739618945 0.4460185637518319
0.06348749199969461 0.39228138739618945 0.44894968246213973
0.06376828199972806 0.3903273082559844 0.45481191988275516
0.06405433200052357 0.39716658524670256 0.4528578407425501
0.06436160300017946 0.40986809965803617 0.44699560332193444
0.06469883699992351 0.4186614557889594 0.4401563263312165
0.06497551600023144 0.41670737664875435 0.4460185637518319
0.06522899199990206 0.40889106008793363 0.45676599902296044
0.06548693199965783 0.39423546653639474 0.467513434294089
0.06582655400052317 0.3786028334147533 0.4811919882755251
0.0660757530004048 0.3659013190034197 0.4851001465559355
0.06628878500032442 0.358085002442599 0.4851001465559355
0.06651429900011863 0.34733756717147046 0.486077186126038
0.06674697900052706 0.3502686858817783 0.4802149487054226
0.06696584499968594 0.3385442110405472 0.47435271128480694
0.06717913700049394 0.33463605276013686 0.46458231558378116
0.06739059600022301 0.3336590131900341 0.4587200781631655
0.06760716500048147 0.33463605276013686 0.4479726428920372
0.06783316000019113 0.3277967757694187 0.4450415241817294
0.06806037800015474 0.31998045920859797 0.4479726428920372
0.06828741000026639 0.31704934049829014 0.4382022471910112
0.06850283200037666 0.31216414264777725 0.44894968246213973
0.0687193270005082 0.3053248656570591 0.45676599902296044
0.06893695200051297 0.30239374694675125 0.4684904738641915
0.06914594800036866 0.3004396678065462 0.4753297508549097
0.06935870300003444 0.30239374694675125 0.4782608695652173
0.06963964100032172 0.3111871030776747 0.4782608695652173
0.0698702850004338 0.32193453834880303 0.4733756717147044
0.07008255799973995 0.33268197361993157 0.46946751343429405
0.07029934999991383 0.348314606741573 0.46946751343429405
0.07055667799977527 0.36003908158280407 0.4655593551538837
0.07082106100006058 0.35906204201270153 0.4587200781631655
0.0710681119999208 0.36492427943331696 0.44894968246213973
0.07127886600028432 0.3707865168539326 0.44894968246213973
0.07151130600050237 0.38739618954567656 0.45188080117244755
0.0717139500002304 0.39716658524670256 0.4460185637518319
0.07191627900010644 0.4079140205178309 0.44211040547142155
0.07211931199981336 0.42745481191988266 0.4430874450415241
0.07232091900004889 0.4450415241817294 0.4460185637518319
0.07252547000007326 0.4733756717147044 0.441133365901319
0.07273965100011992 0.4880312652662433 0.45188080117244755
0.07296453500021016 0.5065950170981925 0.45676599902296044
0.07317234499987535 0.524181729360039 0.4684904738641915
0.0736695570003576 0.5661944308744504 0.48412310698583294
0.07406510500004515 0.5837811431362969 0.4909623839765511
0.07438213499972335 0.5945285784074255 0.4978016609672691
0.07460627900036343 0.5984367366878358 0.5026868588177822
0.07485258799988515 0.6013678553981436 0.5114802149487054
0.07510510199972487 0.6062530532486565 0.5144113336590133
0.07534435599973222 0.6111382510991694 0.5144113336590133
0.07558696199976112 0.6091841719589643 0.5075720566682951
0.07580684599997767 0.6091841719589643 0.4948705422569615
0.07602310099991882 0.6121152906692722 0.486077186126038
0.07623335599964776 0.6140693698094772 0.47142159257449934
0.07644320300005347 0.6160234489496825 0.46458231558378116
0.07666684700052429 0.6140693698094772 0.45676599902296044
0.07688269400023273 0.6160234489496825 0.45188080117244755
0.07709528200030036 0.6209086468001954 0.44992672203224227
0.07730125899979612 0.6150464093795798 0.44894968246213973
0.0775161620003928 0.605276013678554 0.4401563263312165
0.07778928599964274 0.5945285784074255 0.43722520762090866
0.07800531900011265 0.5867122618466047 0.4255007327796776
0.07823892499982321 0.5730337078651686 0.41670737664875435
0.07850388299993938 0.5632633121641426 0.40693698094772834
0.07876613600001292 0.5554469956033219 0.3952125061064973
0.07903666800029896 0.5495847581827065 0.38446507083536874
0.07930482899973867 0.5388373229115779 0.3776257938446508
0.07959419300004811 0.5261358085002443 0.37274059599413767
0.07989853900016897 0.5085490962383976 0.37274059599413767
0.08024573500006227 0.48216902784562765 0.37274059599413767
0.08059872800004086 0.45676599902296044 0.3786028334147533
0.08088042600047629 0.4430874450415241 0.38935026868588185
0.08115551199989568 0.4284318514899854 0.4059599413776258
0.08142995100024564 0.4040058622374205 0.43429408891060084
0.08189066399972944 0.36687835857352225 0.45481191988275516
0.08237304300018877 0.3307278944797265 0.4636052760136786
0.08283894000032888 0.31998045920859797 0.4655593551538837
0.08317806299965014 0.31704934049829014 0.46262823644357587
0.0834679090003192 0.3160723009281876 0.4704445530043966
0.08374023600026703 0.3209574987787005 0.467513434294089
0.08400095300021349 0.3287738153395212 0.46946751343429405
0.08425426299982064 0.3385442110405472 0.467513434294089
0.08452829399993789 0.3531998045920859 0.4655593551538837
0.08479227000043466 0.3659013190034197 0.45969711773326827
0.08506296799987467 0.37469467513434296 0.45969711773326827
0.08531485200001043 0.38153395212506114 0.46262823644357587
0.08566043700011505 0.37469467513434296 0.45969711773326827
0.08603822599980049 0.3737176355642404 0.4606741573033708
0.08630616400023428 0.37957987298485585 0.45969711773326827
0.08658301099967503 0.3913043478260869 0.4606741573033708
0.08685224600048969 0.4010747435271129 0.4538348803126526
0.08716198000001896 0.41670737664875435 0.43917928676111373
0.08744019599998865 0.4323400097703958 0.44699560332193444
0.0876660809999521 0.42940889106008795 0.43624816805080613
0.087891705000402 0.4264777723497801 0.43429408891060084
0.08811177500047052 0.4206155349291647 0.4450415241817294
0.08835315899978013 0.4108451392281387 0.44211040547142155
0.08857633899970097 0.4040058622374205 0.44699560332193444
0.08879559399974823 0.39423546653639474 0.441133365901319
0.08901801499996509 0.38935026868588185 0.4430874450415241
0.08924095499969553 0.3834880312652662 0.441133365901319
0.08962703999986843 0.37957987298485585 0.4509037616023448
0.09001862399964011 0.3883732291157791 0.4655593551538837
0.09027489700019942 0.3952125061064973 0.47435271128480694
0.090496818000247 0.40205178309721545 0.4851001465559355
0.09072498000023188 0.41475329750854906 0.486077186126038
0.09095232700019551 0.42745481191988266 0.48900830483634583
0.09118463699996937 0.44211040547142155 0.4938935026868587
0.0913909290002266 0.44406448461162684 0.49682462139716654
0.09159338799963734 0.4587200781631655 0.49682462139716654
0.09179632799987303 0.46946751343429405 0.49682462139716654
0.0919991939999818 0.4753297508549097 0.49682462139716654
0.09220163400004822 0.4811919882755251 0.49682462139716654
0.09240270400005102 0.4938935026868587 0.4938935026868587
0.09260336700026528 0.5007327796775769 0.4880312652662433
0.09280510300050082 0.5114802149487054 0.4831460674157304
0.09300665400041908 0.5192965315095261 0.4753297508549097
0.09320833499987202 0.522227650219834 0.46946751343429405
0.09340877599970554 0.5271128480703469 0.45969711773326827
0.09363830799975403 0.5310210063507572 0.4479726428920372
0.09387024799980281 0.5329750854909623 0.43917928676111373
0.09409778000008373 0.533952125061065 0.43429408891060084
0.09431821999987733 0.5359062042012701 0.42940889106008795
0.09454204800022126 0.5368832437713726 0.4264777723497801
0.09476446999997279 0.5417684416218858 0.4352711284807034
0.09507379699971352 0.5388373229115779 0.4430874450415241
0.0953037730005235 0.5378602833414754 0.4538348803126526
0.09555791599996155 0.5378602833414754 0.4655593551538837
0.09584318799988978 0.5310210063507572 0.4665363947239862
0.09610903399970994 0.5271128480703469 0.47142159257449934
0.09638089899999613 0.5232046897899365 0.4733756717147044
0.09662930099966616 0.524181729360039 0.4704445530043966
0.09694336899974587 0.5310210063507572 0.4606741573033708
0.09714866099966457 0.5349291646311676 0.45188080117244755
0.09735613799966814 0.5446995603321934 0.44406448461162684
0.09758630000033008 0.5544699560332194 0.42940889106008795
0.09779048099971988 0.5515388373229115 0.42256961406936977
0.09799414300050557 0.5622862725940401 0.41475329750854906
0.09819638000044506 0.5632633121641426 0.4049829018075233
0.09840056099983485 0.567171470444553 0.3952125061064973
0.09860316699996474 0.5642403517342451 0.3932584269662922
0.09880405199965026 0.5613092330239375 0.38935026868588185
0.09900740000011865 0.5583781143136297 0.38153395212506114
0.09922361700046167 0.550561797752809 0.3805569125549584
0.09943624300012743 0.5388373229115779 0.3776257938446508
0.0996394980002151 0.5271128480703469 0.38153395212506114
0.09984025300036592 0.5153883732291158 0.38251099169516367
0.1000427300004958 0.5036638983878847 0.38446507083536874
0.1002454299996316 0.49682462139716654 0.3903273082559844
0.1004499990003751 0.48705422569614076 0.3952125061064973
0.10065212500012422 0.47728382999511476 0.403028822667318
0.10085573200012732 0.4733756717147044 0.4079140205178309
0.10105811599987646 0.4684904738641915 0.4137762579384465
0.10125950099973124 0.46458231558378116 0.4186614557889594
0.10146133000034752 0.4557889594528579 0.42452369320957506
0.10167323299992859 0.4450415241817294 0.4284318514899854
0.10188741399997525 0.43722520762090866 0.43624816805080613
0.10210850200019195 0.42745481191988266 0.43429408891060084
0.10235353400003078 0.4108451392281387 0.4401563263312165
0.10257934400033264 0.3961895456765998 0.43917928676111373
0.1027970989998721 0.38251099169516367 0.4430874450415241
0.10305668599994533 0.37176355642403514 0.44894968246213973
0.10326094100037153 0.3659013190034197 0.45481191988275516
0.10346421400026884 0.3610161211529066 0.4528578407425501
0.10366465500010236 0.3531998045920859 0.4606741573033708
0.10387240999989444 0.34636052760136793 0.4665363947239862
0.10407555300025706 0.34440644846116264 0.4733756717147044
0.10427693800011184 0.34440644846116264 0.4763067904250122
0.10447826699964935 0.34636052760136793 0.4733756717147044
0.10467907800011744 0.3531998045920859 0.4684904738641915
0.10488003699992987 0.35417684416218864 0.46458231558378116
0.10508347700033482 0.3610161211529066 0.4528578407425501
0.1052843990000838 0.36003908158280407 0.4450415241817294
0.1054900050003198 0.3629702002931119 0.44211040547142155
0.10569396400023834 0.36492427943331696 0.43917928676111373
0.10589895999964938 0.3678553981436248 0.441133365901319
0.10610182599975815 0.3629702002931119 0.441133365901319
0.10630276600022626 0.3610161211529066 0.441133365901319
0.10650546600027155 0.36003908158280407 0.441133365901319
0.10670709100031672 0.358085002442599 0.44406448461162684
0.10691021700040437 0.35906204201270153 0.44699560332193444
0.10711236099996313 0.35222276502198335 0.45481191988275516
0.10731407900038903 0.34733756717147046 0.4606741573033708
0.10772388500026864 0.3404982901807523 0.4811919882755251
0.10795904699989478 0.32975085490962375 0.49975574010747437
0.10818341200047144 0.32486565705911086 0.5232046897899365
0.10845175899976311 0.31900341963849543 0.5456765999022961
0.1086701060003179 0.31704934049829014 0.5603321934538348
0.10887393499979225 0.3180263800683927 0.5701025891548608
0.1090766529996472 0.31998045920859797 0.5691255495847583
0.10929546300030779 0.32486565705911086 0.5632633121641426
0.10951173600005859 0.3336590131900341 0.5446995603321934
0.10983569299969531 0.3434294088910601 0.5192965315095261
0.11014351999983774 0.3561309233023937 0.5017098192476794
0.11040738399969996 0.3688324377137273 0.48705422569614076
0.11069050800051627 0.38641914997557403 0.46946751343429405
0.11094550300003903 0.39912066438690763 0.457743038593063
0.11120916399977432 0.4176844162188569 0.4528578407425501
0.11157291600011376 0.42940889106008795 0.4587200781631655
0.11182181799995305 0.44211040547142155 0.46458231558378116
0.1121080160000929 0.4606741573033708 0.457743038593063
0.1123369550005009 0.4831460674157304 0.44699560332193444
0.11255967299985059 0.49877870053737183 0.44211040547142155
0.11277722399972845 0.5163654127992183 0.4264777723497801
0.11298296000040864 0.5271128480703469 0.4186614557889594
0.11319436299982044 0.5388373229115779 0.40889106008793363
0.11341074800020579 0.5495847581827065 0.403028822667318
0.1136502979998113 0.5486077186126037 0.39912066438690763
0.11385220200008916 0.5515388373229115 0.40205178309721545
0.11405590100002883 0.5486077186126037 0.40889106008793363
0.11425447100009478 0.5398143624816805 0.4157303370786516
0.11445474500033015 0.5446995603321934 0.4255007327796776
0.11465468500045972 0.5388373229115779 0.4264777723497801
0.11485303300014493 0.5417684416218858 0.4284318514899854
0.11505200999999943 0.5456765999022961 0.4284318514899854
0.115259043000151 0.5486077186126037 0.4206155349291647
0.11545898300028057 0.5534929164631168 0.4137762579384465
0.11565886799962755 0.5583781143136297 0.40986809965803617
0.11585732700041262 0.5622862725940401 0.40205178309721545
0.11605806300030963 0.5661944308744504 0.39423546653639474
0.11625707700022758 0.5701025891548608 0.39423546653639474
0.11645681400023022 0.5759648265754762 0.3913043478260869
0.11665629100025399 0.5710796287249633 0.3913043478260869
0.11685684300027788 0.5818270639960919 0.40009770395701016
0.11705856099979428 0.5759648265754762 0.40986809965803617
0.11725646400009282 0.5691255495847583 0.4108451392281387
0.11745860799965158 0.5632633121641426 0.41963849535906195
0.11769549200016627 0.5583781143136297 0.4255007327796776
0.11791163599991705 0.5534929164631168 0.41963849535906195
0.11813213100049325 0.5515388373229115 0.4157303370786516
0.11834638599975733 0.5515388373229115 0.4079140205178309
0.11856538099982572 0.5427454811919883 0.40205178309721545
0.11878624699966167 0.533952125061065 0.3981436248168051
0.11911940699974366 0.5280898876404494 0.3952125061064973
0.11934242100051051 0.5232046897899365 0.3932584269662922
0.11957187900043209 0.524181729360039 0.4040058622374205
0.11978150400045706 0.5183194919394236 0.40986809965803617
0.12006647999987763 0.5144113336590133 0.4284318514899854
0.12029480799992598 0.5065950170981925 0.4430874450415241
0.12052872900039802 0.5017098192476794 0.4557889594528579
0.12076020600034099 0.4929164631167562 0.4665363947239862
0.12098586800038902 0.4880312652662433 0.4684904738641915
0.12119652999990649 0.47923790913532005 0.46946751343429405
0.12144172900025296 0.4655593551538837 0.467513434294089
0.12172955599999113 0.4606741573033708 0.46262823644357587
0.12196025499997631 0.4509037616023448 0.467513434294089
0.12218817600023613 0.4401563263312165 0.4733756717147044
0.12242650500047603 0.42940889106008795 0.4851001465559355
0.12267614699976548 0.4186614557889594 0.5026868588177822
0.12289701300051092 0.4157303370786516 0.5163654127992183
0.12311063800007105 0.4108451392281387 0.533952125061065
0.12333296700035135 0.4049829018075233 0.5388373229115779
0.1235563700001876 0.40205178309721545 0.5417684416218858
0.12377545799972722 0.3981436248168051 0.5368832437713726
0.12401319400032662 0.39423546653639474 0.524181729360039
0.12424022600043827 0.3961895456765998 0.5065950170981925
0.12447060999966197 0.39228138739618945 0.48998534440644836
0.12471906799964927 0.3903273082559844 0.47435271128480694
0.12495026699980372 0.38739618954567656 0.45676599902296044
0.1251806319996831 0.3883732291157791 0.4460185637518319
0.1253907580003215 0.38446507083536874 0.43917928676111373
0.12559867900017707 0.3805569125549584 0.42940889106008795
0.12581376700018154 0.3805569125549584 0.4235466536394723
0.12601317100052256 0.3756717147044455 0.41670737664875435
0.1262123149999752 0.37274059599413767 0.412799218368344
0.126410718000443 0.3659013190034197 0.41182217879824123
0.12660915800006478 0.36003908158280407 0.40889106008793363
0.1268081540001731 0.35710796287249624 0.41182217879824123
0.1270056499997736 0.34636052760136793 0.4137762579384465
0.12720368300051632 0.3385442110405472 0.41670737664875435
0.12740158599990536 0.3307278944797265 0.4255007327796776
0.12760367400005634 0.31900341963849543 0.4352711284807034
0.12780372599991097 0.30434782608695654 0.45188080117244755
0.1280035179997867 0.29164631167562294 0.4684904738641915
0.12820188400019106 0.2789447972642891 0.48412310698583294
0.12840521300040564 0.26917440156326333 0.5026868588177822
0.12861420900026133 0.27015144113336587 0.5105031753786029
0.12881242700041184 0.2789447972642891 0.5202735710796287
0.12901349700041465 0.28969223253541765 0.524181729360039
0.12921747400014283 0.3014167073766487 0.5192965315095261
0.12941672899978585 0.3180263800683927 0.5163654127992183
0.12964239099983388 0.33463605276013686 0.5085490962383976
0.129876238000179 0.3531998045920859 0.5056179775280898
0.13015267700029653 0.36492427943331696 0.5017098192476794
0.13037085799987835 0.3805569125549584 0.5036638983878847
0.13057546399977582 0.38153395212506114 0.4978016609672691
0.13077479399998992 0.38153395212506114 0.49682462139716654
0.13097477100018295 0.38739618954567656 0.4948705422569615
0.13118772899997566 0.3913043478260869 0.4880312652662433
0.1314101509997272 0.3961895456765998 0.4831460674157304
0.13163659000019834 0.39912066438690763 0.4802149487054226
0.1319012889998703 0.4108451392281387 0.4811919882755251
0.13212230299996008 0.4176844162188569 0.47435271128480694
0.13236044600034802 0.4352711284807034 0.4665363947239862
0.1326058849999754 0.46165119687347334 0.45676599902296044
0.13291706400013936 0.4909623839765511 0.45481191988275516
0.13322061300004862 0.512457254518808 0.44894968246213973
0.13350773700040008 0.5251587689301416 0.43722520762090866
0.13384989600035624 0.5114802149487054 0.431362970200293
0.13410339100028068 0.5007327796775769 0.431362970200293
0.13436766300037561 0.4851001465559355 0.4323400097703958
0.134667989999798 0.47728382999511476 0.4303859306301905
0.13505176000035135 0.49193942354665365 0.42159257449926724
0.13537017900034698 0.5144113336590133 0.412799218368344
0.13562434100003884 0.5261358085002443 0.4040058622374205
0.13585389099989698 0.5437225207620908 0.3932584269662922
0.13609805299984146 0.5632633121641426 0.3903273082559844
0.13631162300043798 0.5720566682950659 0.38641914997557403
0.13652656300018862 0.5867122618466047 0.38739618954567656
0.13674204000017198 0.5945285784074255 0.3932584269662922
0.13694951700017555 0.5984367366878358 0.3981436248168051
0.13716995699996914 0.6013678553981436 0.39912066438690763
0.13738597100018524 0.6072300928187591 0.4049829018075233
0.13762904000031995 0.6091841719589643 0.4059599413776258
0.13786334999986138 0.6111382510991694 0.4137762579384465
0.13813552900046489 0.6082071323888618 0.412799218368344
0.13836474700019608 0.6091841719589643 0.41475329750854906
0.13861203800024668 0.6091841719589643 0.4157303370786516
0.13881866300016554 0.6082071323888618 0.41475329750854906
0.13902073300050688 0.6082071323888618 0.4186614557889594
0.139222265999706 0.6130923302393747 0.41670737664875435
0.13942433600004733 0.6150464093795798 0.4157303370786516
0.13962860900028318 0.6179775280898876 0.4157303370786516
0.1400258229996325 0.6121152906692722 0.40986809965803617
0.14031394700032251 0.6033219345383487 0.412799218368344
0.1405220160004319 0.5867122618466047 0.42159257449926724
0.14073997499963298 0.567171470444553 0.4206155349291647
0.1409588039996379 0.5495847581827065 0.42452369320957506
0.1411673550001069 0.5310210063507572 0.42940889106008795
0.14138073899994197 0.5153883732291158 0.431362970200293
0.14164489999984653 0.48900830483634583 0.4323400097703958
0.1421067800001765 0.43429408891060084 0.4401563263312165
0.14240320000044449 0.403028822667318 0.44699560332193444
0.1426335280002604 0.3805569125549584 0.4557889594528579
0.14285176399971533 0.36003908158280407 0.4528578407425501
0.14307655599986902 0.3424523693209576 0.4587200781631655
0.14330014400002256 0.33463605276013686 0.4636052760136786
0.14357519399982266 0.32681973619931615 0.46946751343429405
0.14386385400030122 0.3287738153395212 0.47142159257449934
0.14414570000008098 0.3336590131900341 0.4802149487054226
0.144398084000386 0.3404982901807523 0.4763067904250122
0.14460880200022075 0.34929164631167553 0.4733756717147044
0.1448118529997373 0.3551538837322912 0.4733756717147044
0.1450132380005016 0.3561309233023937 0.4704445530043966
0.14522377000048436 0.358085002442599 0.4606741573033708
0.14545806200021616 0.35417684416218864 0.45481191988275516
0.14571281600001385 0.3502686858817783 0.4430874450415241
0.14592673700008163 0.3502686858817783 0.43722520762090866
0.14613304799968319 0.3502686858817783 0.431362970200293
0.14633508099996106 0.3512457254518808 0.4264777723497801
0.1465374099998371 0.3502686858817783 0.4235466536394723
0.14673842400043213 0.35222276502198335 0.4157303370786516
0.1469395310004984 0.35906204201270153 0.40693698094772834
0.14714091600035317 0.36003908158280407 0.4040058622374205
0.1473445970004832 0.3639472398632144 0.403028822667318
0.1475522219998311 0.3688324377137273 0.4059599413776258
0.14775384699987626 0.37469467513434296 0.41963849535906195
0.14795667599992157 0.376648754274548 0.43429408891060084
0.14816554200024257 0.3776257938446508 0.44992672203224227
0.14836711200041464 0.3805569125549584 0.467513434294089
0.14856829299969831 0.3854421104054715 0.4802149487054226
0.1487694930001453 0.3883732291157791 0.4880312652662433
0.1491060970001854 0.38641914997557403 0.4929164631167562
0.14939283199964848 0.3756717147044455 0.4978016609672691
0.14972234299966658 0.3678553981436248 0.49975574010747437
0.1499660600002244 0.3610161211529066 0.5056179775280898
0.15017316700050287 0.36003908158280407 0.5065950170981925
0.15037436700004037 0.3610161211529066 0.5134342940889105
0.1505756590004239 0.36687835857352225 0.5232046897899365
0.15078202499989857 0.3737176355642404 0.5319980459208598
0.1509842799996477 0.3805569125549584 0.5437225207620908
0.15118633099973522 0.3903273082559844 0.5564240351734244
0.15138703100001294 0.40009770395701016 0.5661944308744504
0.1515885819999312 0.40889106008793363 0.5701025891548608
0.15179018900016672 0.4176844162188569 0.5710796287249633
0.1519947400001911 0.4284318514899854 0.5710796287249633
0.15219492100004572 0.441133365901319 0.5730337078651686
0.1523964910002178 0.4538348803126526 0.5720566682950659
0.15259745000003022 0.46946751343429405 0.5681485100146555
0.1527990940003292 0.4802149487054226 0.5544699560332194
0.152999885999634 0.48900830483634583 0.5417684416218858
0.15320156699999643 0.5036638983878847 0.5251587689301416
0.1534020259996396 0.5114802149487054 0.5026868588177822
0.15360865100046794 0.5183194919394236 0.48412310698583294
0.15381409099973098 0.5329750854909623 0.4557889594528579
0.15401558699977613 0.5398143624816805 0.43624816805080613
0.15421706500001164 0.5466536394723986 0.4176844162188569
0.1544277080001848 0.550561797752809 0.40986809965803617
0.15463181500035716 0.5564240351734244 0.40693698094772834
0.1548340150002332 0.5574010747435272 0.40693698094772834
0.15503439900021476 0.5622862725940401 0.40889106008793363
0.15523746899998514 0.5632633121641426 0.4079140205178309
0.15543907600022067 0.5749877870053737 0.403028822667318
0.15563988699977926 0.5749877870053737 0.39912066438690763
0.15584108599978208 0.578895945285784 0.3913043478260869
0.15604210099991178 0.5818270639960919 0.3834880312652662
0.1562424670000837 0.5798729848558866 0.3776257938446508
0.1564433330004249 0.5808500244259893 0.3707865168539326
0.15664303300036408 0.578895945285784 0.3639472398632144
0.15684958400015603 0.5779189057156815 0.3629702002931119
0.15705202400022245 0.5740107474352711 0.36003908158280407
0.15725244599980215 0.5661944308744504 0.35906204201270153
0.15749766299995827 0.5593551538837322 0.3561309233023937
0.15776895399994828 0.5515388373229115 0.358085002442599
0.15801802199985104 0.5466536394723986 0.36687835857352225
0.15828481300013664 0.540791402051783 0.3737176355642404
0.1585014570000567 0.5368832437713726 0.3903273082559844
0.15870541500044055 0.5310210063507572 0.40009770395701016
0.15890757800025312 0.5261358085002443 0.4108451392281387
0.1591109070004677 0.5202735710796287 0.4255007327796776
0.1593123470001956 0.5153883732291158 0.4352711284807034
0.15951515800043126 0.5114802149487054 0.44699560332193444
0.15971594999973604 0.5095261358085001 0.45481191988275516
0.15991727900018304 0.5075720566682951 0.45676599902296044
0.16011975600031292 0.5046409379579873 0.46165119687347334
0.16032473399991432 0.49877870053737183 0.4606741573033708
0.16052602600029786 0.4948705422569615 0.4636052760136786
0.1607277069997508 0.486077186126038 0.46458231558378116
0.1609290360001978 0.4753297508549097 0.4606741573033708
0.1611298280004121 0.46262823644357587 0.4606741573033708
0.16133054600049945 0.44894968246213973 0.4606741573033708
0.16156083700025192 0.43722520762090866 0.4557889594528579
0.1617660000001706 0.42159257449926724 0.4460185637518319
0.16196653299994068 0.4059599413776258 0.44699560332193444
0.1621694169998591 0.38739618954567656 0.4509037616023448
0.16237354300028528 0.376648754274548 0.45188080117244755
0.16257453900016117 0.3561309233023937 0.4528578407425501
0.1627753680004389 0.3277967757694187 0.45481191988275516
0.16297599300014554 0.30434782608695654 0.45481191988275516
0.16317661900029634 0.2857840742550073 0.4557889594528579
0.16337822599962237 0.2760136785539815 0.45188080117244755
0.16357990699998481 0.2711284807034684 0.44992672203224227
0.16378058800000872 0.26917440156326333 0.4479726428920372
0.16398152800047683 0.2760136785539815 0.4450415241817294
0.16418406100001448 0.2838299951148022 0.4460185637518319
0.16438524200020765 0.29653150952613583 0.4450415241817294
0.16458603400042193 0.3053248656570591 0.44211040547142155
0.16478712200023438 0.3131411822178798 0.441133365901319
0.1649874329996237 0.3229115779189058 0.44211040547142155
0.16518839200034563 0.3356130923302394 0.44406448461162684
0.16539031299998896 0.3336590131900341 0.441133365901319
0.16559291999965353 0.3453834880312652 0.4430874450415241
0.16587350700046954 0.36003908158280407 0.44406448461162684
0.16612476099999185 0.36687835857352225 0.4401563263312165
0.16634975600027246 0.38153395212506114 0.4450415241817294
0.1665817880002578 0.3913043478260869 0.4460185637518319
0.16680396900028427 0.40009770395701016 0.4479726428920372
0.16703766800037556 0.4040058622374205 0.4538348803126526
0.16726412600019103 0.40889106008793363 0.4557889594528579
0.16748699199979455 0.4137762579384465 0.45969711773326827
0.16770335799992608 0.42159257449926724 0.467513434294089
0.16793370499999583 0.42452369320957506 0.4753297508549097
0.16816475500036177 0.42452369320957506 0.4802149487054226
0.16839434299981804 0.42159257449926724 0.486077186126038
0.16862498699993012 0.4206155349291647 0.47923790913532005
0.16884453800048504 0.4264777723497801 0.4782608695652173
0.16906710700004624 0.4303859306301905 0.47728382999511476
0.1692764179997539 0.4284318514899854 0.47728382999511476
0.1694916540000122 0.4264777723497801 0.4811919882755251
0.16972251900006086 0.4157303370786516 0.4880312652662433
0.16994599600002402 0.4176844162188569 0.48998534440644836
0.17017912099981913 0.4186614557889594 0.49682462139716654
0.17039415300041583 0.4255007327796776 0.5036638983878847
0.17087445800007117 0.4352711284807034 0.512457254518808
0.17118615599974873 0.4460185637518319 0.5153883732291158
0.1714166510000723 0.4557889594528579 0.5144113336590133
0.17165259000012156 0.4665363947239862 0.5114802149487054
0.17188551100025506 0.4684904738641915 0.5026868588177822
0.17210843300017586 0.4753297508549097 0.5007327796775769
0.17234315000041533 0.4831460674157304 0.4909623839765511
0.17255175700029213 0.49193942354665365 0.4811919882755251
0.1727579930002321 0.5026868588177822 0.4704445530043966
0.1729601739998543 0.5134342940889105 0.46165119687347334
0.1731616879997091 0.5183194919394236 0.45969711773326827
0.17336377700030425 0.522227650219834 0.457743038593063
0.17360262400052306 0.5280898876404494 0.457743038593063
0.1738062490003358 0.5290669272105519 0.4636052760136786
0.1740087999996831 0.5319980459208598 0.4704445530043966
0.17420872200000304 0.5329750854909623 0.4811919882755251
0.1746922860002087 0.5359062042012701 0.4929164631167562
0.17490667099991697 0.5349291646311676 0.47923790913532005
0.17511492599987832 0.5388373229115779 0.47239863214460187
0.17531832900021982 0.5427454811919883 0.45969711773326827
0.17552137999973638 0.5495847581827065 0.4479726428920372
0.17572569100047986 0.5583781143136297 0.4323400097703958
0.17592740899999626 0.5779189057156815 0.4176844162188569
0.17612918200029526 0.5749877870053737 0.40693698094772834
0.17633154800023476 0.5808500244259893 0.3952125061064973
0.17653313699975115 0.5867122618466047 0.39423546653639474
0.1767359840005156 0.5906204201270151 0.38739618954567656
0.17693740600043384 0.5925744992672204 0.38739618954567656
0.17713868000009825 0.595505617977528 0.3883732291157791
0.17734228700010135 0.5906204201270151 0.38935026868588185
0.17757209699993837 0.5837811431362969 0.3952125061064973
0.17777642600049148 0.578895945285784 0.39912066438690763
0.17798384700017778 0.5701025891548608 0.40205178309721545
0.178185583999948 0.5661944308744504 0.403028822667318
0.17838683900026808 0.5583781143136297 0.3981436248168051
0.1785996119997435 0.550561797752809 0.3932584269662922
0.1788141449997056 0.5417684416218858 0.38739618954567656
0.17901739999979327 0.5388373229115779 0.3776257938446508
0.17922143299983873 0.5319980459208598 0.37274059599413767
0.17942392799977824 0.522227650219834 0.3678553981436248
0.17962896100016223 0.5163654127992183 0.3688324377137273
0.1798299379997843 0.5095261358085001 0.3707865168539326
0.1800317859997449 0.5017098192476794 0.376648754274548
0.1802320229999168 0.4948705422569615 0.3786028334147533
0.18043433300044853 0.486077186126038 0.3805569125549584
0.18063445900043007 0.4811919882755251 0.38446507083536874
0.18083582500003104 0.4704445530043966 0.38739618954567656
0.18103644999973767 0.4655593551538837 0.3883732291157791
0.18123751999974047 0.4587200781631655 0.3913043478260869
0.1814389419996587 0.45188080117244755 0.40009770395701016
0.1816676959997494 0.43917928676111373 0.40693698094772834
0.18186998900000617 0.431362970200293 0.41670737664875435
0.18207366899969202 0.4206155349291647 0.431362970200293
0.18227412800024467 0.4079140205178309 0.44406448461162684
0.18247571699976106 0.3913043478260869 0.4430874450415241
0.18267643499984842 0.37957987298485585 0.44894968246213973
0.18287783800042234 0.3707865168539326 0.45481191988275516
0.1830782229999386 0.36492427943331696 0.46458231558378116
0.1832787740004278 0.36003908158280407 0.4763067904250122
0.18348045499988075 0.3551538837322912 0.48998534440644836
0.18368137699962972 0.35222276502198335 0.4938935026868587
0.18388187300024583 0.35222276502198335 0.4929164631167562
0.18408270200052357 0.3561309233023937 0.4938935026868587
0.1842862530002094 0.3551538837322912 0.48412310698583294
0.18448997100040287 0.36003908158280407 0.4782608695652173
0.1846917820003 0.3629702002931119 0.47435271128480694
0.18489486999988003 0.3639472398632144 0.4684904738641915
0.18509593999988283 0.3639472398632144 0.4665363947239862
0.1853013239997381 0.36003908158280407 0.4655593551538837
0.1855034500003967 0.3610161211529066 0.4704445530043966
0.18570442700001877 0.36003908158280407 0.4763067904250122
0.1859054409997043 0.35417684416218864 0.48998534440644836
0.18610616000023583 0.3502686858817783 0.49877870053737183
0.1863090070000908 0.34636052760136793 0.512457254518808
0.1865096330002416 0.348314606741573 0.524181729360039
0.18671107299996947 0.3404982901807523 0.5212506106497312
0.1869144199999937 0.33952125061064975 0.5251587689301416
0.18711489799989067 0.34440644846116264 0.5192965315095261
0.18731602299976657 0.34440644846116264 0.512457254518808
0.18751837099989643 0.34440644846116264 0.5056179775280898
0.18772003300000506 0.3434294088910601 0.5046409379579873
0.18792186199971184 0.34440644846116264 0.5065950170981925
0.18812243200045486 0.3414753297508548 0.49682462139716654
0.18832357599967509 0.3404982901807523 0.4909623839765511
0.18852523900022788 0.33952125061064975 0.486077186126038
0.18872569799987104 0.3385442110405472 0.4811919882755251
0.1889267859996835 0.3414753297508548 0.4753297508549097
0.18912724500023614 0.34440644846116264 0.4704445530043966
0.18932820400004857 0.3453834880312652 0.4704445530043966
0.18952918099967064 0.34636052760136793 0.47239863214460187
0.18975754599978245 0.34929164631167553 0.47142159257449934
0.18995848699978524 0.35417684416218864 0.4733756717147044
0.19015996400048607 0.35906204201270153 0.4811919882755251
0.19036090400004468 0.36199316072300936 0.48216902784562765
0.19056193699998403 0.3688324377137273 0.4831460674157304
0.1907629140005156 0.3756717147044455 0.4851001465559355
0.19096304000049713 0.3776257938446508 0.4851001465559355
0.1911631650000345 0.38153395212506114 0.48412310698583294
0.19136427200010075 0.3854421104054715 0.4802149487054226
0.19156526799997664 0.3903273082559844 0.47142159257449934
0.1917655970000851 0.39716658524670256 0.4655593551538837
0.1919663890002994 0.4040058622374205 0.4557889594528579
0.19216638499983674 0.4157303370786516 0.44992672203224227
0.19236725100017793 0.42940889106008795 0.43429408891060084
0.1925943019996339 0.45188080117244755 0.4255007327796776
0.1928115569999136 0.47239863214460187 0.4157303370786516
0.19302962599977036 0.49682462139716654 0.403028822667318
0.19330512099986663 0.5144113336590133 0.3952125061064973
0.19357133700032136 0.5280898876404494 0.38739618954567656
0.1938093509997998 0.5446995603321934 0.3786028334147533
0.19402488299965626 0.5525158768930141 0.3688324377137273
0.19432758099992498 0.5603321934538348 0.358085002442599
0.1945941120002317 0.5652173913043479 0.35710796287249624
0.19486393999977736 0.5701025891548608 0.35710796287249624
0.19516836000002513 0.5740107474352711 0.36687835857352225
0.19552283400025772 0.5779189057156815 0.38935026868588185
0.1959488060001604 0.5808500244259893 0.4040058622374205
0.19621080100023391 0.5779189057156815 0.41182217879824123
0.19644475899985991 0.5749877870053737 0.4235466536394723
0.196683068999846 0.5740107474352711 0.4235466536394723
0.19692419300008623 0.5681485100146555 0.42452369320957506
0.19715180000002874 0.5652173913043479 0.42452369320957506
0.19738207299997157 0.567171470444553 0.42940889106008795
0.19775412099988898 0.5642403517342451 0.4382022471910112
0.1979791710000427 0.5593551538837322 0.43917928676111373
0.19817805599996063 0.5583781143136297 0.4430874450415241
0.19837660800021695 0.5593551538837322 0.4430874450415241
0.19857473299998674 0.5544699560332194 0.43917928676111373
0.19878146999963064 0.5534929164631168 0.4352711284807034
0.19898200199986604 0.5525158768930141 0.43917928676111373
0.1991852020000806 0.5466536394723986 0.44894968246213973
0.19938603100035834 0.5446995603321934 0.46458231558378116
0.19959898999968573 0.5388373229115779 0.48412310698583294
0.1998076330000913 0.5300439667806547 0.5007327796775769
0.20001383300041198 0.5163654127992183 0.5183194919394236
0.20021319900024537 0.5144113336590133 0.5359062042012701
0.20041184300043824 0.4938935026868587 0.5456765999022961
0.20061063499997545 0.486077186126038 0.5446995603321934
0.2008087610001894 0.47239863214460187 0.540791402051783
0.20100768199972663 0.4763067904250122 0.5319980459208598
0.20157792999998492 0.44699560332193444 0.4753297508549097
0.20183412799997313 0.4382022471910112 0.457743038593063
0.20203532800042012 0.4303859306301905 0.4460185637518319
0.20223517500016897 0.4206155349291647 0.4323400097703958
0.2024377640000239 0.40693698094772834 0.42452369320957506
0.20263735200023802 0.39716658524670256 0.40889106008793363
0.20283777399981773 0.38641914997557403 0.4079140205178309
0.2030358250003701 0.3776257938446508 0.4059599413776258
0.20323472899963235 0.3707865168539326 0.40986809965803617
0.2034332989996983 0.3639472398632144 0.4186614557889594
0.20363355399967986 0.35417684416218864 0.431362970200293
0.20383153100010531 0.3512457254518808 0.4479726428920372
0.20403319399974862 0.34636052760136793 0.4636052760136786
0.20423185599975113 0.34440644846116264 0.4733756717147044
0.20443009300015547 0.3434294088910601 0.4782608695652173
0.20462769999994634 0.34440644846116264 0.4733756717147044
0.20482688100037194 0.3434294088910601 0.4684904738641915
0.2050273949998882 0.34440644846116264 0.4655593551538837
0.20522561300003872 0.3453834880312652 0.46262823644357587
0.20542297900010453 0.34733756717147046 0.4606741573033708
0.20563551200029906 0.3434294088910601 0.46458231558378116
0.20583391499985737 0.34636052760136793 0.46946751343429405
0.20603192999988096 0.3404982901807523 0.4811919882755251
0.2062317219997567 0.3356130923302394 0.486077186126038
0.20643053200001305 0.32975085490962375 0.4929164631167562
0.2066311210001004 0.3238886174890083 0.49682462139716654
0.2068290059996798 0.3209574987787005 0.4938935026868587
0.20702789000006305 0.3209574987787005 0.4948705422569615
0.20722562700029812 0.3229115779189058 0.49193942354665365
0.20742378999966604 0.32193453834880303 0.4880312652662433
0.2076216369996473 0.31704934049829014 0.4831460674157304
0.20781896700009383 0.3160723009281876 0.47239863214460187
0.2080163700002231 0.3111871030776747 0.4636052760136786
0.20821647699995083 0.3111871030776747 0.4538348803126526
0.20841549099986878 0.31216414264777725 0.4479726428920372
0.20861341300042113 0.3150952613580851 0.44699560332193444
0.208811335000064 0.3180263800683927 0.4479726428920372
0.20900853399962216 0.3229115779189058 0.4509037616023448
0.20920773400030157 0.3229115779189058 0.457743038593063
0.2094058220000079 0.32681973619931615 0.4606741573033708
0.20960931799982063 0.33463605276013686 0.4636052760136786
0.20981431400014117 0.34440644846116264 0.4655593551538837
0.21001623600022867 0.3502686858817783 0.46262823644357587
0.21021760199982964 0.36003908158280407 0.46262823644357587
0.21041907899962098 0.3737176355642404 0.4665363947239862
0.21062092700049106 0.3854421104054715 0.4704445530043966
0.21082229300009203 0.4079140205178309 0.4753297508549097
0.21102354800041212 0.4176844162188569 0.4831460674157304
0.2112244700001611 0.4323400097703958 0.48900830483634583
0.2114261879996775 0.44406448461162684 0.48900830483634583
0.21162768300018797 0.45676599902296044 0.486077186126038
0.2118366419999802 0.47142159257449934 0.4802149487054226
0.2120427859999836 0.4811919882755251 0.4753297508549097
0.2122454669997751 0.4948705422569615 0.4704445530043966
0.21245788800024457 0.5065950170981925 0.46458231558378116
0.21269899500020983 0.5271128480703469 0.457743038593063
0.21296515599988197 0.5427454811919883 0.4587200781631655
0.21324357600042276 0.5564240351734244 0.4528578407425501
0.2135025150000729 0.5661944308744504 0.44992672203224227
0.21389322899995022 0.5720566682950659 0.44699560332193444
0.21429673900001944 0.567171470444553 0.44211040547142155
0.21460786199986615 0.550561797752809 0.441133365901319
0.21494922500005487 0.5446995603321934 0.4460185637518319
0.2152556259998164 0.5398143624816805 0.4479726428920372
0.21560337800019624 0.5398143624816805 0.44406448461162684
0.21593129800021416 0.5329750854909623 0.43917928676111373
0.21625249499993515 0.5446995603321934 0.43722520762090866
0.21667433800030267 0.5603321934538348 0.43722520762090866
0.21706368099967221 0.5701025891548608 0.4303859306301905
0.21737717500036524 0.5798729848558866 0.4352711284807034
0.21773961200051417 0.5798729848558866 0.43624816805080613
0.21803658699991502 0.5749877870053737 0.431362970200293
0.21827237799971044 0.5749877870053737 0.431362970200293
0.21849692900013906 0.5720566682950659 0.4264777723497801
0.21874592400035908 0.5652173913043479 0.42452369320957506
0.21904682500007766 0.5564240351734244 0.42940889106008795
0.2192823759996827 0.5446995603321934 0.4264777723497801
0.2194965199996659 0.5398143624816805 0.4284318514899854
0.21971223699983966 0.5349291646311676 0.431362970200293
0.21991675200024474 0.5280898876404494 0.4255007327796776
0.22011902499980351 0.5261358085002443 0.42452369320957506
0.2203256689999762 0.5192965315095261 0.4186614557889594
0.22054392399968492 0.5153883732291158 0.41670737664875435
0.22077014099977532 0.512457254518808 0.4108451392281387
0.22099228499973833 0.5105031753786029 0.4079140205178309
0.2212036689998058 0.5105031753786029 0.4079140205178309
0.22142681300010736 0.5095261358085001 0.40205178309721545
0.22172149200014246 0.5007327796775769 0.40986809965803617
0.2219635980000021 0.4851001465559355 0.40205178309721545
0.2222064079996926 0.45676599902296044 0.41182217879824123
0.2224920310000016 0.4079140205178309 0.4137762579384465
0.22302046500044526 0.3424523693209576 0.42452369320957506
0.22333855099986977 0.3209574987787005 0.431362970200293
0.22359123099977296 0.31021006350757196 0.43722520762090866
0.22381141100049717 0.31021006350757196 0.44211040547142155
0.22401592500045808 0.31216414264777725 0.44894968246213973
0.22421949500039773 0.3150952613580851 0.4509037616023448
0.22442123200016795 0.32193453834880303 0.44992672203224227
0.2246229129996209 0.3287738153395212 0.4479726428920372
0.2248241119996237 0.3385442110405472 0.4430874450415241
0.2250253120000707 0.3453834880312652 0.4401563263312165
0.22522830799971416 0.3502686858817783 0.43917928676111373
0.22543171100005566 0.3551538837322912 0.43429408891060084
0.22566094700050598 0.36003908158280407 0.43429408891060084
0.22586409100040328 0.3639472398632144 0.4333170493404983
0.22606551199987734 0.3678553981436248 0.43624816805080613
0.22626810099973227 0.3737176355642404 0.4401563263312165
0.2264700220002851 0.37957987298485585 0.44894968246213973
0.22667100000035134 0.3913043478260869 0.457743038593063
0.22687466200022754 0.3952125061064973 0.46262823644357587
0.22707682500004012 0.39716658524670256 0.4665363947239862
0.22727906100044493 0.3961895456765998 0.4684904738641915
0.22748070499983442 0.39912066438690763 0.47239863214460187
0.227683590000197 0.39912066438690763 0.4763067904250122
0.22788473400032672 0.40009770395701016 0.4811919882755251
0.22808608099967387 0.39716658524670256 0.486077186126038
0.22828781800035358 0.403028822667318 0.4880312652662433
0.228503536000062 0.41475329750854906 0.48900830483634583
0.22872171600010915 0.42452369320957506 0.48705422569614076
0.2289490820003266 0.4303859306301905 0.48998534440644836
0.22919918800016603 0.42745481191988266 0.495847581827064
0.22941455399995903 0.4157303370786516 0.5056179775280898
0.22965412299981836 0.40205178309721545 0.5007327796775769
0.22989098800007923 0.3903273082559844 0.5007327796775769
0.23010153900031582 0.37469467513434296 0.495847581827064
0.23030666500017105 0.37274059599413767 0.49682462139716654
0.2305081610002162 0.3707865168539326 0.4909623839765511
0.23071065600015572 0.37274059599413767 0.48705422569614076
0.2309122260003278 0.3786028334147533 0.48900830483634583
0.23111675899963302 0.3883732291157791 0.48705422569614076
0.231322550999721 0.3932584269662922 0.48900830483634583
0.23152384300010453 0.4040058622374205 0.49193942354665365
0.23172543199962092 0.4157303370786516 0.4948705422569615
0.23192626099989866 0.4206155349291647 0.4938935026868587
0.23212733099990146 0.43429408891060084 0.4938935026868587
0.23232893699969281 0.44406448461162684 0.48998534440644836
0.23253085899978032 0.4587200781631655 0.4851001465559355
0.2327320399999735 0.4782608695652173 0.4733756717147044
0.23293303599984938 0.49682462139716654 0.4587200781631655
0.233134568999958 0.512457254518808 0.44699560332193444
0.2333367500004897 0.5251587689301416 0.4333170493404983
0.23376433300018107 0.5446995603321934 0.4235466536394723
0.234006180000506 0.5544699560332194 0.4264777723497801
0.23421062000034 0.5534929164631168 0.4284318514899854
0.2344130049996238 0.5544699560332194 0.431362970200293
0.23461538999981713 0.5495847581827065 0.43429408891060084
0.23481725600049685 0.5417684416218858 0.4333170493404983
0.23501888099963253 0.5359062042012701 0.4382022471910112
0.2352212480000162 0.5310210063507572 0.4401563263312165
0.23542644700046367 0.5280898876404494 0.44211040547142155
0.2356290910001917 0.5290669272105519 0.43917928676111373
0.23583260499981407 0.5280898876404494 0.43917928676111373
0.23603397100032453 0.5310210063507572 0.43624816805080613
0.23623555999984092 0.533952125061065 0.4382022471910112
0.236437259000013 0.5349291646311676 0.4323400097703958
0.23663816299995233 0.540791402051783 0.431362970200293
0.23684160300035728 0.5388373229115779 0.43624816805080613
0.23704356100006407 0.5427454811919883 0.42745481191988266
0.23724733499966533 0.5417684416218858 0.4284318514899854
0.23745177500040882 0.5427454811919883 0.4255007327796776
0.23765577100039081 0.5446995603321934 0.4284318514899854
0.23785684100039362 0.5466536394723986 0.4255007327796776
0.23805883699969854 0.5446995603321934 0.42452369320957506
0.23825992500042048 0.5446995603321934 0.42452369320957506
0.23846143900027528 0.5446995603321934 0.4264777723497801
0.2386629909997282 0.5417684416218858 0.41670737664875435
0.23886415299966757 0.5427454811919883 0.4108451392281387
0.23906429700036824 0.5437225207620908 0.4079140205178309
0.23926425599984213 0.5368832437713726 0.41182217879824123
0.23946430700016208 0.5378602833414754 0.41182217879824123
0.23966511799972068 0.5359062042012701 0.41182217879824123
0.23986622499978694 0.5398143624816805 0.4176844162188569
0.24006816499968409 0.5261358085002443 0.4157303370786516
0.2402721050002583 0.5202735710796287 0.412799218368344
0.24048452700026246 0.5105031753786029 0.4108451392281387
0.24070344800020393 0.5026868588177822 0.4137762579384465
0.24091224000039801 0.4929164631167562 0.42256961406936977
0.24111458800052787 0.4811919882755251 0.42256961406936977
0.24131669500002317 0.47435271128480694 0.4284318514899854
0.24151824599994143 0.4636052760136786 0.4323400097703958
0.24174970399963058 0.4538348803126526 0.43722520762090866
0.24195469999995112 0.44406448461162684 0.43917928676111373
0.2421563249999963 0.42452369320957506 0.45188080117244755
0.24235815399970306 0.4079140205178309 0.4636052760136786
0.24256642799991823 0.38739618954567656 0.47239863214460187
0.24276703499981522 0.3688324377137273 0.47923790913532005
0.2429693080002835 0.348314606741573 0.4880312652662433
0.24317100799999025 0.3385442110405472 0.48412310698583294
0.2433726890003527 0.3307278944797265 0.48412310698583294
0.24357366599997476 0.3209574987787005 0.4811919882755251
0.24377627299963933 0.3180263800683927 0.4782608695652173
0.24398112099970604 0.3131411822178798 0.4782608695652173
0.24418307900032232 0.31021006350757196 0.46946751343429405
0.24438789000032557 0.3082559843673669 0.4636052760136786
0.24458857100034948 0.31704934049829014 0.45481191988275516
0.24479003000033117 0.32193453834880303 0.4509037616023448
0.2449991740004407 0.3277967757694187 0.441133365901319
0.24520000299980893 0.32975085490962375 0.43429408891060084
0.24540107299981173 0.33463605276013686 0.4333170493404983
0.24560216099962418 0.33463605276013686 0.42745481191988266
0.24580387900005007 0.33463605276013686 0.4206155349291647
0.24600417100009508 0.33463605276013686 0.4157303370786516
0.24620509299984406 0.33268197361993157 0.40986809965803617
0.24640714399993158 0.3336590131900341 0.40986809965803617
0.24660717700044188 0.3356130923302394 0.412799218368344
0.2468117649996202 0.33170493404982904 0.41963849535906195
0.24701307600025757 0.3356130923302394 0.42452369320957506
0.24721412700000656 0.33756717147044446 0.4264777723497801
0.2474149749996286 0.34440644846116264 0.431362970200293
0.24761552600011782 0.35222276502198335 0.4333170493404983
0.2478165219999937 0.35710796287249624 0.4382022471910112
0.24801770300018688 0.36003908158280407 0.43429408891060084
0.24821831000008387 0.3639472398632144 0.4333170493404983
0.24842093600000226 0.3707865168539326 0.4323400097703958
0.2486226720002378 0.3756717147044455 0.4333170493404983
0.2488231489996906 0.3786028334147533 0.42940889106008795
0.2490248670001165 0.3805569125549584 0.43722520762090866
0.24922908500047924 0.3834880312652662 0.44406448461162684
0.24942995200035512 0.38935026868588185 0.45188080117244755
0.24964787299995805 0.39423546653639474 0.4636052760136786
0.24986566500047047 0.4059599413776258 0.47142159257449934
0.2500686419998601 0.42256961406936977 0.47923790913532005
0.2502703420004764 0.4382022471910112 0.4851001465559355
0.2504722080002466 0.45481191988275516 0.4948705422569615
0.2506729810002071 0.45969711773326827 0.49682462139716654
0.25087371799963876 0.46458231558378116 0.49975574010747437
0.2510741770001914 0.46946751343429405 0.5036638983878847
0.2512748580002153 0.47239863214460187 0.5046409379579873
0.2514763529998163 0.47435271128480694 0.5075720566682951
0.2516779420002422 0.47435271128480694 0.5056179775280898
0.2518802710001182 0.4733756717147044 0.5046409379579873
0.2520842479998464 0.4763067904250122 0.5017098192476794
0.25228520699965884 0.4811919882755251 0.5017098192476794
0.2524881469998945 0.48900830483634583 0.49682462139716654
0.2526892730002146 0.49877870053737183 0.495847581827064
0.25288934299987886 0.5144113336590133 0.4909623839765511
0.2530906350002624 0.5261358085002443 0.4909623839765511
0.2532920009998634 0.5388373229115779 0.49193942354665365
0.2534928109998873 0.5476306790425012 0.48998534440644836
0.25369404800039774 0.5574010747435272 0.48998534440644836
0.2538949700001467 0.567171470444553 0.486077186126038
0.25409646600019187 0.5691255495847583 0.4811919882755251
0.2543000910000046 0.5730337078651686 0.4763067904250122
0.25450143899979594 0.5740107474352711 0.46946751343429405
0.2547022310000102 0.5740107474352711 0.4655593551538837
0.25490368900045723 0.5720566682950659 0.46165119687347334
0.2551059260003967 0.5710796287249633 0.4606741573033708
0.2553070510002726 0.5710796287249633 0.45969711773326827
0.2555082879998736 0.5642403517342451 0.46262823644357587
0.2557118949998767 0.5642403517342451 0.45969711773326827
0.25591222399998514 0.5661944308744504 0.45188080117244755
0.2561131829997976 0.5652173913043479 0.44894968246213973
0.2563139929998215 0.5613092330239375 0.44699560332193444
0.25651691500024754 0.5632633121641426 0.44894968246213973
0.2567180779997216 0.5574010747435272 0.4528578407425501
0.25691886999993585 0.5544699560332194 0.457743038593063
0.25712027300050977 0.5476306790425012 0.4655593551538837
0.25732334300028015 0.5476306790425012 0.46946751343429405
0.2575258759998178 0.5368832437713726 0.47435271128480694
0.2577432600000975 0.5378602833414754 0.47728382999511476
0.2579449780005234 0.5359062042012701 0.4665363947239862
0.2581456589996378 0.5359062042012701 0.45676599902296044
0.2583474140001272 0.5359062042012701 0.4479726428920372
0.2585482430004049 0.5368832437713726 0.44699560332193444
0.25875003500004823 0.5359062042012701 0.441133365901319
0.25895112400030484 0.5398143624816805 0.44406448461162684
0.25915206399986346 0.5271128480703469 0.441133365901319
0.2593528380002681 0.5232046897899365 0.44211040547142155
0.2595542959998056 0.5163654127992183 0.43429408891060084
0.2597578479999356 0.5105031753786029 0.4284318514899854
0.2599591580001288 0.5036638983878847 0.4157303370786516
0.2601602280001316 0.4929164631167562 0.4049829018075233
0.2603644090004309 0.4831460674157304 0.39716658524670256
0.26056740500007436 0.4684904738641915 0.38641914997557403
0.26077078900016204 0.4587200781631655 0.3805569125549584
0.26097185900016484 0.4479726428920372 0.3834880312652662
0.2611768180004219 0.43624816805080613 0.38446507083536874
0.2613786660003825 0.4284318514899854 0.3903273082559844
0.2615809389999413 0.4176844162188569 0.39716658524670256
0.2617817500004094 0.412799218368344 0.403028822667318
0.26198274600028526 0.4059599413776258 0.40889106008793363
0.26231498000015563 0.3903273082559844 0.41182217879824123
0.26253197500045644 0.38153395212506114 0.41670737664875435
0.262735934000375 0.37469467513434296 0.4176844162188569
0.262938578000103 0.36687835857352225 0.4206155349291647
0.26313987000048655 0.3659013190034197 0.4235466536394723
0.2633403290001297 0.3610161211529066 0.4284318514899854
0.263540806000492 0.3561309233023937 0.431362970200293
0.26374200500049483 0.35222276502198335 0.431362970200293
0.2639430569997785 0.35222276502198335 0.42940889106008795
0.26414305300022534 0.34929164631167553 0.4264777723497801
0.26434360399980505 0.35417684416218864 0.4206155349291647
0.2645439150001039 0.358085002442599 0.41475329750854906
0.2647442070001489 0.3629702002931119 0.4137762579384465
0.2649446650002574 0.3659013190034197 0.41182217879824123
0.2651444390003235 0.3659013190034197 0.41670737664875435
0.26534763899962854 0.3678553981436248 0.431362970200293
0.2655636709996543 0.36980947728383007 0.42940889106008795
0.26576959300018643 0.3688324377137273 0.43917928676111373
0.26597029200002 0.3688324377137273 0.4479726428920372
0.266172491999896 0.3737176355642404 0.45481191988275516
0.26637404299981426 0.3737176355642404 0.45969711773326827
0.2665767609996692 0.38153395212506114 0.4587200781631655
0.2667786640004124 0.38641914997557403 0.45969711773326827
0.26697971599969605 0.3883732291157791 0.45188080117244755
0.2671813779998047 0.38641914997557403 0.44894968246213973
0.26738361499974417 0.38739618954567656 0.44894968246213973
0.26758986999993795 0.3805569125549584 0.45188080117244755
0.26779014299972914 0.3737176355642404 0.4557889594528579
0.2679922130000705 0.3688324377137273 0.4606741573033708
0.2681939310004964 0.3629702002931119 0.47142159257449934
0.26839464899967425 0.3610161211529066 0.47142159257449934
0.2685961260003751 0.3610161211529066 0.47142159257449934
0.26879836300031457 0.35906204201270153 0.4665363947239862
0.26900026600014826 0.3639472398632144 0.46458231558378116
0.2692012249999607 0.36687835857352225 0.4655593551538837
0.26940088700030174 0.37176355642403514 0.4704445530043966
0.2696029759999874 0.3756717147044455 0.47728382999511476
0.2698029350003708 0.3786028334147533 0.4909623839765511
0.27000481899995066 0.38153395212506114 0.5095261358085001
0.270206166999742 0.38153395212506114 0.5271128480703469
0.27041025499966054 0.38153395212506114 0.5427454811919883
0.2706131770000866 0.38446507083536874 0.5544699560332194
0.270814264999899 0.38935026868588185 0.5642403517342451
0.2710148169999229 0.3913043478260869 0.5554469956033219
0.2712150160004967 0.40205178309721545 0.550561797752809
0.27141632700022456 0.40693698094772834 0.5437225207620908
0.2716184709997833 0.41182217879824123 0.5310210063507572
0.2718187450000187 0.4206155349291647 0.5173424523693209
0.27201933299966186 0.4323400097703958 0.5075720566682951
0.2722194950001722 0.4450415241817294 0.5036638983878847
0.27242139900045004 0.4528578407425501 0.4938935026868587
0.2726214690001143 0.46946751343429405 0.4880312652662433
0.27282470499994815 0.48412310698583294 0.4831460674157304
0.27302512700043735 0.495847581827064 0.4782608695652173
0.2732253820004189 0.5114802149487054 0.4733756717147044
0.2734273040005064 0.5232046897899365 0.46946751343429405
0.2736417440000878 0.5359062042012701 0.467513434294089
0.2738421650001328 0.5486077186126037 0.45676599902296044
0.27404358700005105 0.550561797752809 0.4509037616023448
0.2742450089999693 0.5534929164631168 0.44211040547142155
0.27444591200037394 0.5574010747435272 0.44406448461162684
0.27464801899986924 0.5544699560332194 0.4382022471910112
0.27485312600038014 0.5583781143136297 0.4352711284807034
0.2750547510004253 0.5534929164631168 0.4382022471910112
0.2752657470000486 0.5525158768930141 0.4430874450415241
0.275467428000411 0.5564240351734244 0.44699560332193444
0.2756684050000331 0.5593551538837322 0.4509037616023448
0.2758731969997825 0.5613092330239375 0.45188080117244755
0.2760983779999151 0.5613092330239375 0.4538348803126526
0.2763246690001324 0.5613092330239375 0.4538348803126526
0.2765462570005184 0.5613092330239375 0.4557889594528579
0.27677245599988964 0.5613092330239375 0.45188080117244755
0.27702715499981423 0.5583781143136297 0.44992672203224227
0.27725240899962955 0.5593551538837322 0.44406448461162684
0.2775200149999364 0.5593551538837322 0.42745481191988266
0.2778600629999346 0.5632633121641426 0.403028822667318
0.27809165100006794 0.5622862725940401 0.38446507083536874
0.27830579500005115 0.5593551538837322 0.36687835857352225
0.2785722890002944 0.5574010747435272 0.3659013190034197
0.2788208760002817 0.5486077186126037 0.36980947728383007
0.27908372300043993 0.5427454811919883 0.3786028334147533
0.27944964099970093 0.5329750854909623 0.38935026868588185
0.279742876000455 0.522227650219834 0.39228138739618945
0.28004225800032145 0.5134342940889105 0.3903273082559844
0.28030332700018334 0.49682462139716654 0.38641914997557403
0.2806733380002697 0.48412310698583294 0.38251099169516367
0.28090866599995934 0.4753297508549097 0.38446507083536874
0.2811926049998874 0.4587200781631655 0.38446507083536874
0.2814293040000848 0.4509037616023448 0.38935026868588185
0.28174466699965706 0.4323400097703958 0.3786028334147533
0.28202593900005013 0.42159257449926724 0.3756717147044455
0.28224352699999145 0.40889106008793363 0.3737176355642404
0.28245033799976227 0.403028822667318 0.3854421104054715
0.2826499259999764 0.37957987298485585 0.3952125061064973
0.2828492560001905 0.3678553981436248 0.412799218368344
0.28304988099989714 0.35222276502198335 0.4284318514899854
0.2832524140003443 0.33463605276013686 0.44894968246213973
0.2834514650003257 0.31900341963849543 0.4704445530043966
0.28365075700003217 0.303370786516854 0.48900830483634583
0.28385103100026754 0.29457743038593054 0.5056179775280898
0.28405002700037585 0.2906692721055202 0.5173424523693209
0.2842518930001461 0.29164631167562294 0.5212506106497312
0.2844499259999793 0.3014167073766487 0.5183194919394236
0.28464873699977034 0.30923302393746943 0.5114802149487054
0.2848481399996672 0.32193453834880303 0.5026868588177822
0.2850479690005159 0.3287738153395212 0.48998534440644836
0.2852466690001165 0.33170493404982904 0.4802149487054226
0.2854451089997383 0.3385442110405472 0.47239863214460187
0.2856710859996383 0.34440644846116264 0.467513434294089
0.28587132200027554 0.3512457254518808 0.46165119687347334
0.28607068800010893 0.35710796287249624 0.4509037616023448
0.2862693879997096 0.36003908158280407 0.4382022471910112
0.28646756899979664 0.36687835857352225 0.4323400097703958
0.2866664539997146 0.37176355642403514 0.4206155349291647
0.2868642089997593 0.37957987298485585 0.4186614557889594
0.28706316799980414 0.38153395212506114 0.4206155349291647
0.2872610340000392 0.38739618954567656 0.4264777723497801
0.2874610480002957 0.38935026868588185 0.43429408891060084
0.28766008100046747 0.39228138739618945 0.4450415241817294
0.28785846600021614 0.3932584269662922 0.45969711773326827
0.28805705400009174 0.3913043478260869 0.47728382999511476
0.2882565870004328 0.38641914997557403 0.4948705422569615
0.28845400899990636 0.38153395212506114 0.5065950170981925
0.28865291199963394 0.3776257938446508 0.5173424523693209
0.28885022299982666 0.37469467513434296 0.5300439667806547
0.2890485150001041 0.3776257938446508 0.5378602833414754
0.2892465300001277 0.38446507083536874 0.5417684416218858
0.28944439600036276 0.39228138739618945 0.5378602833414754
0.2896585030002825 0.40205178309721545 0.5319980459208598
0.2898587950003275 0.40693698094772834 0.5290669272105519
0.29005662400049914 0.41182217879824123 0.5202735710796287
0.2902550640001209 0.4176844162188569 0.5134342940889105
0.2904533930004618 0.41963849535906195 0.5105031753786029
0.2906519999996817 0.4186614557889594 0.5095261358085001
0.2908495330002552 0.4176844162188569 0.5026868588177822
0.2910475850003422 0.42452369320957506 0.4938935026868587
0.29124643199975253 0.4255007327796776 0.4880312652662433
0.2914442990004318 0.4284318514899854 0.4811919882755251
0.29164149799998995 0.431362970200293 0.47435271128480694
0.2918395309998232 0.4352711284807034 0.4684904738641915
0.29203778600003716 0.441133365901319 0.46262823644357587
0.29240650100018684 0.45969711773326827 0.45481191988275516
0.29263319999972737 0.47728382999511476 0.44699560332193444
0.29283397299968783 0.4909623839765511 0.4430874450415241
0.29304533899994567 0.5085490962383976 0.4382022471910112
0.2932863340001859 0.5290669272105519 0.4284318514899854
0.29357345799962786 0.5466536394723986 0.4186614557889594
0.29384673000004113 0.5564240351734244 0.4079140205178309
0.2941071880004529 0.567171470444553 0.3961895456765998
0.29443305099994177 0.5701025891548608 0.38641914997557403
0.29478700700019544 0.5749877870053737 0.3913043478260869
0.29510359300002165 0.5613092330239375 0.3981436248168051
0.2954472520004856 0.5476306790425012 0.4079140205178309
0.2957264500000747 0.533952125061065 0.41475329750854906
0.29600037000000157 0.5192965315095261 0.41475329750854906
0.2962642720003714 0.5163654127992183 0.4176844162188569
0.2965315080000437 0.5105031753786029 0.42256961406936977
0.29681885300033173 0.5144113336590133 0.431362970200293
0.2971029959999214 0.5114802149487054 0.44894968246213973
0.29740167500040116 0.5202735710796287 0.47142159257449934
0.29812564100029704 0.5319980459208598 0.4733756717147044
0.2983537840000281 0.5310210063507572 0.47142159257449934
0.29855396499988274 0.5310210063507572 0.4684904738641915
0.2987529980000545 0.5261358085002443 0.47435271128480694
0.2989512530002685 0.5232046897899365 0.4811919882755251
0.29915274900031363 0.524181729360039 0.4753297508549097
0.2993518559997028 0.5105031753786029 0.4753297508549097
0.29955029699976876 0.5046409379579873 0.4733756717147044
0.2997495150002578 0.495847581827064 0.467513434294089
0.29995588099973247 0.48705422569614076 0.46946751343429405
0.3001553949998197 0.4782608695652173 0.4587200781631655
0.3003592060003939 0.4733756717147044 0.4538348803126526
0.3005568870003117 0.46458231558378116 0.44699560332193444
0.3007559380002931 0.45969711773326827 0.4382022471910112
0.30095360100040125 0.45188080117244755 0.43429408891060084
0.30115226300040376 0.4509037616023448 0.431362970200293
0.30134968499987735 0.44406448461162684 0.4206155349291647
0.301572884000052 0.4352711284807034 0.4157303370786516
0.3017755090004357 0.4255007327796776 0.41182217879824123
0.3019738570001209 0.4206155349291647 0.412799218368344
0.30217116800031363 0.4157303370786516 0.41182217879824123
0.30236983000031614 0.41182217879824123 0.42159257449926724
0.3025674190002974 0.4040058622374205 0.4303859306301905
0.30276461799985555 0.39423546653639474 0.43722520762090866
0.30296257700047136 0.38935026868588185 0.44992672203224227
0.3031601100001353 0.38641914997557403 0.45676599902296044
0.3033579020002435 0.38153395212506114 0.467513434294089
0.3035563800003729 0.37957987298485585 0.47142159257449934
0.3037547639996774 0.3737176355642404 0.4733756717147044
0.30395252000016626 0.37274059599413767 0.4684904738641915
0.30415066400018986 0.37176355642403514 0.4636052760136786
0.30434788200000185 0.3688324377137273 0.45481191988275516
0.3045453410004484 0.3737176355642404 0.4460185637518319
0.3047440589998587 0.3756717147044455 0.4401563263312165
0.30494205499962845 0.3834880312652662 0.43429408891060084
0.30514012500043464 0.3786028334147533 0.431362970200293
0.30533793500035245 0.3786028334147533 0.4303859306301905
0.305545727000208 0.376648754274548 0.4284318514899854
0.3057550009998522 0.37957987298485585 0.43624816805080613
0.3059576069999821 0.38739618954567656 0.43624816805080613
0.3061587700003656 0.39423546653639474 0.43429408891060084
0.30635980300030496 0.39716658524670256 0.43917928676111373
0.3065612990003501 0.4049829018075233 0.4430874450415241
0.3067625539997607 0.4137762579384465 0.44699560332193444
0.30696343799991155 0.4206155349291647 0.44894968246213973
0.3071683230000417 0.4264777723497801 0.45481191988275516
0.3073700410004676 0.4284318514899854 0.45481191988275516
0.30757094399996276 0.4303859306301905 0.4509037616023448
0.30777175500043086 0.4284318514899854 0.44894968246213973
0.30797262099986256 0.4235466536394723 0.44992672203224227
0.30817406100049993 0.41670737664875435 0.45188080117244755
0.3083750020005027 0.40889106008793363 0.45676599902296044
0.30857564600046317 0.4010747435271129 0.46165119687347334
0.30878190099974745 0.39716658524670256 0.4665363947239862
0.3089865069996449 0.3952125061064973 0.4665363947239862
0.30918829900019773 0.3952125061064973 0.46946751343429405
0.3093898140004967 0.39716658524670256 0.4753297508549097
0.30959625400009827 0.4010747435271129 0.47728382999511476
0.30979706499965687 0.4059599413776258 0.4831460674157304
0.30999837499985006 0.4059599413776258 0.48705422569614076
0.31019926000044507 0.4059599413776258 0.4929164631167562
0.31040023700006714 0.40693698094772834 0.495847581827064
0.3106031590004932 0.40693698094772834 0.49877870053737183
0.3108034320002844 0.4049829018075233 0.495847581827064
0.31100492800032953 0.4040058622374205 0.49975574010747437
0.31120957199982513 0.40693698094772834 0.49975574010747437
0.3114145859999553 0.4079140205178309 0.5026868588177822
0.3116176559997257 0.4157303370786516 0.5026868588177822
0.31181850400025724 0.42256961406936977 0.5046409379579873
0.312021055000514 0.42745481191988266 0.5017098192476794
0.3122231990000728 0.43429408891060084 0.5007327796775769
0.3124240099996314 0.4333170493404983 0.495847581827064
0.3126247649997822 0.4401563263312165 0.49193942354665365
0.3128267609999966 0.44699560332193444 0.48705422569614076
0.3130289230002745 0.45481191988275516 0.4851001465559355
0.3132313260002775 0.46946751343429405 0.4811919882755251
0.3134335810000266 0.47923790913532005 0.4763067904250122
0.31365302100039116 0.48998534440644836 0.47239863214460187
0.3138548320002883 0.49975574010747437 0.467513434294089
0.31405629100027 0.5095261358085001 0.45969711773326827
0.3142583230001037 0.5173424523693209 0.45188080117244755
0.3144597079999585 0.5329750854909623 0.44211040547142155
0.3146609819996229 0.5368832437713726 0.4333170493404983
0.3148627549999219 0.5466536394723986 0.42940889106008795
0.31506386199998815 0.5554469956033219 0.4235466536394723
0.3152667100002873 0.5593551538837322 0.4206155349291647
0.31546939100007876 0.5564240351734244 0.4176844162188569
0.3156707569996797 0.5574010747435272 0.4235466536394723
0.31587169700014783 0.5554469956033219 0.4284318514899854
0.31607389700002386 0.5515388373229115 0.4323400097703958
0.3162760960003652 0.5476306790425012 0.441133365901319
0.3164778700001989 0.5466536394723986 0.4382022471910112
0.3166783469996517 0.5466536394723986 0.44406448461162684
0.31687939899984485 0.5437225207620908 0.44211040547142155
0.317081338999742 0.5456765999022961 0.44211040547142155
0.3172833720000199 0.5446995603321934 0.4333170493404983
0.3174846450001496 0.5466536394723986 0.4264777723497801
0.31768708500021603 0.5476306790425012 0.4157303370786516
0.3178883399996266 0.5564240351734244 0.4049829018075233
0.3180887440003062 0.5661944308744504 0.39716658524670256
0.3182890360003512 0.5808500244259893 0.39228138739618945
0.31848995800010016 0.5857352222765022 0.38935026868588185
0.31869178699980694 0.5994137762579383 0.38935026868588185
0.3188926900002116 0.605276013678554 0.3913043478260869
0.3190927229998124 0.6072300928187591 0.3834880312652662
0.31929395899987867 0.6072300928187591 0.3854421104054715
0.3194949179996911 0.6023448949682462 0.38739618954567656
0.3196965249999266 0.5915974596971176 0.3913043478260869
0.31989663199965435 0.5798729848558866 0.3932584269662922
0.320097849999911 0.5681485100146555 0.4059599413776258
0.3202997719999985 0.5564240351734244 0.412799218368344
0.3205019340002764 0.5378602833414754 0.4264777723497801
0.3207026890004272 0.5202735710796287 0.4401563263312165
0.32090366700049344 0.5046409379579873 0.4479726428920372
0.32110507000015787 0.48900830483634583 0.44699560332193444
0.32130619500003377 0.4733756717147044 0.44894968246213973
0.32150685800024803 0.45676599902296044 0.4430874450415241
0.3217142610001247 0.4460185637518319 0.4382022471910112
0.32191531199987367 0.43429408891060084 0.4352711284807034
0.32211571500010905 0.42159257449926724 0.4352711284807034
0.3223158410000906 0.412799218368344 0.44211040547142155
0.32251661400005105 0.4010747435271129 0.4382022471910112
0.3228926620004131 0.3834880312652662 0.4450415241817294
0.323117435000313 0.3786028334147533 0.4509037616023448
0.32332148699970276 0.3688324377137273 0.457743038593063
0.32352253800036124 0.3678553981436248 0.4655593551538837
0.32372295999994094 0.36199316072300936 0.4665363947239862
0.32392454799992265 0.3561309233023937 0.4684904738641915
0.32412548800039076 0.3561309233023937 0.46946751343429405
0.3243264470002032 0.3512457254518808 0.4636052760136786
0.32452851699963503 0.3512457254518808 0.457743038593063
0.3247303460002513 0.348314606741573 0.4528578407425501
0.3249301750001905 0.3434294088910601 0.4479726428920372
0.3251310969999395 0.3434294088910601 0.44211040547142155
0.3253319260002172 0.3414753297508548 0.44211040547142155
0.3255505329998414 0.33952125061064975 0.43917928676111373
0.32577458400010073 0.33170493404982904 0.4450415241817294
0.3259958569997252 0.3258426966292134 0.44992672203224227
0.32621379700049147 0.31900341963849543 0.4509037616023448
0.3264156440000079 0.303370786516854 0.4557889594528579
0.32661638100034907 0.29262335124572547 0.457743038593063
0.3268175800003519 0.27992183683439187 0.4538348803126526
0.32702631699976337 0.2681973619931608 0.4557889594528579
0.3272556820002137 0.26233512457254515 0.4538348803126526
0.3274605859996882 0.24865657059110902 0.45481191988275516
0.32766195200019865 0.23693209574987795 0.4557889594528579
0.3278633729996727 0.22227650219833905 0.46165119687347334
0.32806422100020427 0.21250610649731305 0.4655593551538837
0.3282658280004398 0.20175867122618474 0.46946751343429405
0.32847004599989305 0.19687347337567163 0.47239863214460187
0.3286710049997055 0.19980459208597945 0.4782608695652173
0.3288748710001528 0.20762090864680016 0.4851001465559355
0.3290762189999441 0.22032242305813377 0.48900830483634583
0.32928082499984157 0.24181729360039084 0.48900830483634583
0.3294852290000563 0.2662432828529555 0.4909623839765511
0.3296894840004825 0.2867611138251098 0.4938935026868587
0.3298903129998507 0.31216414264777725 0.495847581827064
0.33009177100029774 0.32681973619931615 0.4929164631167562
0.330292749000364 0.34733756717147046 0.495847581827064
0.33049346700045135 0.3629702002931119 0.4929164631167562
0.33069490700017923 0.376648754274548 0.4929164631167562
0.33089519900022424 0.3932584269662922 0.4929164631167562
0.33109647299988865 0.4049829018075233 0.49193942354665365
0.3312977460000184 0.4235466536394723 0.4938935026868587
0.3314987240000846 0.43917928676111373 0.4938935026868587
0.331699571000172 0.4587200781631655 0.5007327796775769
0.3318996600000901 0.47239863214460187 0.4978016609672691
0.3321001559997967 0.48998534440644836 0.5007327796775769
0.33230015099979937 0.5105031753786029 0.49682462139716654
0.33250068400047894 0.5388373229115779 0.4938935026868587
0.3327016800003548 0.5701025891548608 0.4831460674157304
0.33290602800025226 0.6023448949682462 0.467513434294089
0.33310856000025524 0.6297020029311187 0.45188080117244755
0.3333095380003215 0.6463116756228626 0.43917928676111373
0.3335147739999229 0.6609672691744015 0.42452369320957506
0.3337426400003096 0.6756228627259404 0.41670737664875435
0.3339446540003337 0.6844162188568637 0.4079140205178309
0.334146131000125 0.688324377137274 0.4010747435271129
0.33435066400033975 0.6912554958475818 0.3952125061064973
0.3345521410001311 0.6873473375671715 0.3981436248168051
0.334754729999986 0.6805080605764533 0.40205178309721545
0.33495557800051756 0.6756228627259404 0.40693698094772834
0.3351556839998011 0.6746458231558379 0.412799218368344
0.3353577360003328 0.6697606253053248 0.4235466536394723
0.3355585279996376 0.6697606253053248 0.4284318514899854
0.3357585049998306 0.6629213483146068 0.43722520762090866
0.33596727900021506 0.6482657547630679 0.4382022471910112
0.3361685709996891 0.6375183194919394 0.4450415241817294
0.3363692889997765 0.6345872007816316 0.44894968246213973
0.3365703589997793 0.6072300928187591 0.44406448461162684
0.336771188000057 0.5925744992672204 0.4401563263312165
0.33697131300050387 0.5828041035661944 0.43722520762090866
0.33717114200044307 0.5759648265754762 0.4382022471910112
0.33737284200014983 0.5720566682950659 0.43722520762090866
0.33757672699994146 0.5701025891548608 0.4333170493404983
0.3377777590003461 0.5691255495847583 0.4303859306301905
0.33797827400030656 0.5730337078651686 0.42940889106008795
0.3381806770003095 0.5720566682950659 0.42940889106008795
0.33838696899965726 0.5740107474352711 0.4382022471910112
0.33858835400042153 0.5730337078651686 0.4509037616023448
0.3387892569999167 0.567171470444553 0.46458231558378116
0.3389900860001944 0.5632633121641426 0.4753297508549097
0.339190896999753 0.5613092330239375 0.4782608695652173
0.3393916889999673 0.5544699560332194 0.4782608695652173
0.33959246199992776 0.5456765999022961 0.4704445530043966
0.33979288400041696 0.5398143624816805 0.4655593551538837
0.33999330599999666 0.5310210063507572 0.45969711773326827
0.3401962280004227 0.524181729360039 0.45676599902296044
0.3403978719998122 0.512457254518808 0.4538348803126526
0.3405979790004494 0.49975574010747437 0.4587200781631655
0.3407981970003675 0.48216902784562765 0.45676599902296044
0.3409993960003703 0.47239863214460187 0.457743038593063
0.34119952200035186 0.45969711773326827 0.4528578407425501
0.34140025800024887 0.44699560332193444 0.4509037616023448
0.3416025320002518 0.43722520762090866 0.4430874450415241
0.34180334200027573 0.4264777723497801 0.441133365901319
0.3420036899997285 0.41670737664875435 0.43624816805080613
0.3422039079996466 0.40889106008793363 0.43917928676111373
0.3424041260004742 0.3961895456765998 0.4401563263312165
0.3426039550004134 0.3854421104054715 0.4430874450415241
0.34280467300050077 0.37274059599413767 0.441133365901319
0.3430057060004401 0.3659013190034197 0.43917928676111373
0.34320560900050623 0.358085002442599 0.4382022471910112
0.3434073830003399 0.3561309233023937 0.4382022471910112
0.34360849000040616 0.35222276502198335 0.4333170493404983
0.343808652000007 0.34733756717147046 0.4255007327796776
0.3440085000002 0.34440644846116264 0.4176844162188569
0.344209550999949 0.3424523693209576 0.42452369320957506
0.34441034399969794 0.3404982901807523 0.41670737664875435
0.34461109899984876 0.33952125061064975 0.4206155349291647
0.3448127800002112 0.3414753297508548 0.42452369320957506
0.34501294199981203 0.3404982901807523 0.42940889106008795
0.3452131599997301 0.34636052760136793 0.431362970200293
0.34541287800038845 0.3453834880312652 0.43429408891060084
0.3456312260004779 0.3453834880312652 0.44211040547142155
0.345833369000502 0.3434294088910601 0.44211040547142155
0.34603434699965874 0.3356130923302394 0.4460185637518319
0.34623606500008464 0.3287738153395212 0.4509037616023448
0.3464363749999393 0.32193453834880303 0.4528578407425501
0.34663711200028047 0.31021006350757196 0.4557889594528579
0.34684194100009336 0.29457743038593054 0.46165119687347334
0.347045511000033 0.2808988764044944 0.46262823644357587
0.347245803000078 0.2681973619931608 0.4655593551538837
0.3474467799997001 0.2633121641426477 0.4606741573033708
0.3476486279996607 0.2584269662921348 0.4557889594528579
0.34785138300048857 0.26428920371275044 0.4557889594528579
0.34805126799983555 0.26722032242305804 0.4509037616023448
0.34825143000034586 0.27210552027357116 0.44406448461162684
0.3484521480004332 0.2779677576941866 0.4401563263312165
0.3486524030004148 0.28187591597459694 0.4333170493404983
0.34885528799986787 0.2877381533952126 0.43624816805080613
0.34905711700048414 0.29457743038593054 0.44211040547142155
0.3492582239996409 0.29946262823644365 0.45188080117244755
0.3494591090002359 0.30239374694675125 0.4606741573033708
0.34966286400049285 0.30923302393746943 0.4753297508549097
0.3498649339999247 0.3131411822178798 0.4880312652662433
0.3500728179997168 0.3238886174890083 0.4929164631167562
0.3502740920002907 0.3385442110405472 0.5017098192476794
0.35047629099972255 0.3512457254518808 0.5046409379579873
0.35067813899968314 0.3659013190034197 0.5017098192476794
0.3508785419999185 0.38251099169516367 0.4851001465559355
0.3510807600005137 0.39716658524670256 0.47239863214460187
0.3512808670002414 0.4176844162188569 0.4636052760136786
0.35164123000049585 0.4557889594528579 0.4606741573033708
0.3518627989997185 0.47435271128480694 0.46458231558378116
0.3520702949999759 0.49877870053737183 0.4763067904250122
0.3522718089998307 0.5192965315095261 0.48998534440644836
0.3524725830002353 0.5300439667806547 0.5017098192476794
0.35267294900040724 0.5446995603321934 0.5075720566682951
0.3528737779997755 0.5574010747435272 0.5095261358085001
0.35307449599986285 0.567171470444553 0.5056179775280898
0.3532755289998022 0.576941866145579 0.49877870053737183
0.35347756200008007 0.5798729848558866 0.49682462139716654
0.3536792430004425 0.5857352222765022 0.5026868588177822
0.3538794060004875 0.5915974596971176 0.5046409379579873
0.3540809940004692 0.5935515388373229 0.5056179775280898
0.3542809529999431 0.5984367366878358 0.5065950170981925
0.3544817259999036 0.6023448949682462 0.5056179775280898
0.35468422200028726 0.5984367366878358 0.5065950170981925
0.3548851249997824 0.6013678553981436 0.5017098192476794
0.3550842880003984 0.5935515388373229 0.4929164631167562
0.35528402399995684 0.5847581827063997 0.48216902784562765
0.3554847980003615 0.5818270639960919 0.4763067904250122
0.3556852199999412 0.5740107474352711 0.4655593551538837
0.3558859559998382 0.5749877870053737 0.4557889594528579
0.3560859340004754 0.5740107474352711 0.4479726428920372
0.356287911000436 0.5759648265754762 0.4382022471910112
0.35648927700003696 0.5749877870053737 0.43722520762090866
0.3566929030002939 0.5779189057156815 0.4333170493404983
0.3568930840001485 0.5828041035661944 0.4333170493404983
0.35709311600021465 0.5828041035661944 0.43624816805080613
0.3572942970004078 0.578895945285784 0.43722520762090866
0.3574951640002837 0.5720566682950659 0.43624816805080613
0.3576963080004134 0.5681485100146555 0.4352711284807034
0.3578970260005008 0.5583781143136297 0.43429408891060084
0.3581027440004618 0.5544699560332194 0.431362970200293
0.35830407299999933 0.5466536394723986 0.42159257449926724
0.3585051800000656 0.5437225207620908 0.41475329750854906
0.35870660100044915 0.5398143624816805 0.4059599413776258
0.3589078929999232 0.5349291646311676 0.4010747435271129
0.35910905600030674 0.5280898876404494 0.39716658524670256
0.3593338480004604 0.5192965315095261 0.3952125061064973
0.35954825000044366 0.5114802149487054 0.3952125061064973
0.35976770900015254 0.5017098192476794 0.39423546653639474
0.359984149000411 0.4948705422569615 0.3913043478260869
0.3602617910000845 0.48900830483634583 0.39912066438690763
0.3604892680004923 0.48412310698583294 0.3952125061064973
0.3607111339997573 0.4782608695652173 0.40009770395701016
0.36093298099967797 0.47142159257449934 0.40889106008793363
0.36118903100032185 0.46262823644357587 0.41963849535906195
0.36141671200039127 0.4538348803126526 0.4235466536394723
0.3617229090004912 0.4460185637518319 0.4235466536394723
0.36205116099972656 0.4382022471910112 0.4255007327796776
0.36231619299996964 0.42745481191988266 0.4352711284807034
0.3625662430004013 0.4176844162188569 0.44699560332193444
0.36291229099970224 0.40693698094772834 0.4665363947239862
0.36320374800016 0.4010747435271129 0.47435271128480694
0.3634731499996633 0.4040058622374205 0.4811919882755251
0.36382019899974694 0.3854421104054715 0.4948705422569615
0.36410006300047826 0.3756717147044455 0.49682462139716654
0.36432613200031483 0.36687835857352225 0.49193942354665365
0.36455759100044816 0.3629702002931119 0.4851001465559355
0.36480004799977905 0.36199316072300936 0.4763067904250122
0.3650364510003783 0.3610161211529066 0.4655593551538837
0.36525685400010843 0.35906204201270153 0.45481191988275516
0.3654760709996481 0.358085002442599 0.44406448461162684
0.36575156599974434 0.36492427943331696 0.43624816805080613
0.3659677650002777 0.36199316072300936 0.4323400097703958
0.36616877899996325 0.3629702002931119 0.42745481191988266
0.3663678490001985 0.36199316072300936 0.42159257449926724
0.3665668080002433 0.35906204201270153 0.412799218368344
0.3667746740002258 0.35710796287249624 0.412799218368344
0.36697313300010137 0.3561309233023937 0.4108451392281387
0.36717781399966043 0.35906204201270153 0.4137762579384465
0.36737634699966293 0.35417684416218864 0.4176844162188569
0.3675746760000038 0.3531998045920859 0.42452369320957506
0.36777317199994286 0.3502686858817783 0.42940889106008795
0.3679750190003688 0.348314606741573 0.4382022471910112
0.3681734600004347 0.34733756717147046 0.44894968246213973
0.36837682599980326 0.3414753297508548 0.45481191988275516
0.36857871000029263 0.3414753297508548 0.45969711773326827
0.3687793170001896 0.33952125061064975 0.4704445530043966
0.36897934999979043 0.3385442110405472 0.46946751343429405
0.36917732799975056 0.3414753297508548 0.4704445530043966
0.36937493500045093 0.34440644846116264 0.46946751343429405
0.3695747820001998 0.34733756717147046 0.46458231558378116
0.3697745190002024 0.3531998045920859 0.45676599902296044
0.36997340400012035 0.3561309233023937 0.4557889594528579
0.37017136299982667 0.35906204201270153 0.45481191988275516
0.37036935800006177 0.36199316072300936 0.4538348803126526
0.3705675210003392 0.3678553981436248 0.4538348803126526
0.3707657200002359 0.3707865168539326 0.4606741573033708
0.37096397599998454 0.3776257938446508 0.457743038593063
0.3711631940004736 0.38446507083536874 0.4636052760136786
0.3713606900000741 0.39423546653639474 0.4665363947239862
0.3715595559997382 0.4040058622374205 0.4802149487054226
0.37175751500035403 0.4137762579384465 0.4851001465559355
0.37195495499963727 0.41963849535906195 0.48998534440644836
0.3721525800001473 0.43624816805080613 0.48900830483634583
0.3723500759997478 0.4450415241817294 0.48412310698583294
0.37254846100040595 0.4587200781631655 0.47728382999511476
0.3727469010000277 0.4763067904250122 0.46262823644357587
0.37294493399986095 0.4929164631167562 0.457743038593063
0.37314294899988454 0.5095261358085001 0.45481191988275516
0.3733411109997178 0.524181729360039 0.4538348803126526
0.3735531620004622 0.5319980459208598 0.44894968246213973
0.3737535840000419 0.5398143624816805 0.44406448461162684
0.3739516730001924 0.5446995603321934 0.44406448461162684
0.3741507430004276 0.5525158768930141 0.43722520762090866
0.3743566829998599 0.5446995603321934 0.431362970200293
0.37457499300035124 0.5437225207620908 0.4264777723497801
0.37480037699970126 0.5349291646311676 0.42256961406936977
0.3751045930002874 0.5310210063507572 0.4255007327796776
0.3754511779998211 0.5202735710796287 0.42745481191988266
0.3758055600001171 0.5251587689301416 0.431362970200293
0.3761199979999219 0.5280898876404494 0.43722520762090866
0.3763855480001439 0.5329750854909623 0.44211040547142155
0.3766580419996899 0.5368832437713726 0.4401563263312165
0.3768915000000561 0.5417684416218858 0.4509037616023448
0.37710770000012417 0.5427454811919883 0.44894968246213973
0.3773267130000022 0.5437225207620908 0.44699560332193444
0.3775902639999913 0.5466536394723986 0.4509037616023448
0.3778267400002733 0.5486077186126037 0.4460185637518319
0.3780441239996435 0.5534929164631168 0.44211040547142155
0.378260360999775 0.5564240351734244 0.431362970200293
0.3785098369999105 0.5583781143136297 0.4255007327796776
0.3788500339996972 0.5632633121641426 0.4255007327796776
0.3791954710004575 0.567171470444553 0.42745481191988266
0.3795069460002196 0.5583781143136297 0.431362970200293
0.37984571699962544 0.5525158768930141 0.4303859306301905
0.38015521000033914 0.5359062042012701 0.43624816805080613
0.3804502040002262 0.5251587689301416 0.43429408891060084
0.38073495699973137 0.512457254518808 0.4401563263312165
0.3809899329999098 0.5017098192476794 0.44211040547142155
0.3812510210000255 0.4909623839765511 0.4509037616023448
0.38191250700037926 0.4382022471910112 0.4509037616023448
0.38216887199996563 0.4157303370786516 0.4528578407425501
0.3823883670002033 0.39423546653639474 0.44894968246213973
0.38260410400016553 0.37469467513434296 0.4479726428920372
0.3828195810001489 0.3659013190034197 0.44699560332193444
0.3830501310003456 0.36003908158280407 0.4450415241817294
0.3832964780003749 0.3551538837322912 0.44894968246213973
0.3835221030003595 0.35417684416218864 0.4538348803126526
0.3837383950003641 0.3551538837322912 0.46165119687347334
0.384092461000364 0.3629702002931119 0.4753297508549097
0.3843202710004334 0.3678553981436248 0.47728382999511476
0.3845229520002249 0.37274059599413767 0.4763067904250122
0.384722003999741 0.3776257938446508 0.47239863214460187
0.38492179600052623 0.37957987298485585 0.46458231558378116
0.3851212919998943 0.38446507083536874 0.45188080117244755
0.38532025099993916 0.3883732291157791 0.441133365901319
0.38551954299964564 0.3805569125549584 0.4303859306301905
0.3857663340004365 0.3786028334147533 0.4206155349291647
0.3859685699999318 0.37469467513434296 0.41182217879824123
0.3861705660001462 0.36980947728383007 0.403028822667318
0.386371951000001 0.3639472398632144 0.39716658524670256
0.3865735950003 0.3610161211529066 0.39423546653639474
0.3867764240003453 0.35710796287249624 0.38935026868588185
0.3869791790002637 0.3561309233023937 0.38446507083536874
0.3871800639999492 0.3629702002931119 0.3903273082559844
0.3873804670001846 0.36003908158280407 0.3932584269662922
0.3875812960004623 0.3688324377137273 0.40009770395701016
0.3877823660004651 0.36980947728383007 0.4137762579384465
0.387984121000045 0.37176355642403514 0.42940889106008795
0.3881854689998363 0.37176355642403514 0.44894968246213973
0.3883871680000084 0.3688324377137273 0.46458231558378116
0.388588257000265 0.3659013190034197 0.47923790913532005
0.3887892519996967 0.3659013190034197 0.4909623839765511
0.38899139600016497 0.36199316072300936 0.4978016609672691
0.38919205900037923 0.3610161211529066 0.5007327796775769
0.3893924989997686 0.36199316072300936 0.49975574010747437
0.3895941620003214 0.3659013190034197 0.495847581827064
0.3897950279997531 0.3756717147044455 0.49877870053737183
0.389995708999777 0.3834880312652662 0.5026868588177822
0.39019559400003345 0.38935026868588185 0.5114802149487054
0.39039957099976164 0.39716658524670256 0.5183194919394236
0.39060141800018755 0.4059599413776258 0.524181729360039
0.3908024700003807 0.40693698094772834 0.5290669272105519
0.3910030580000239 0.41182217879824123 0.5359062042012701
0.3912035539997305 0.4186614557889594 0.5427454811919883
0.39140393900015624 0.4255007327796776 0.5554469956033219
0.3916043790004551 0.431362970200293 0.5652173913043479
0.391805504000331 0.4430874450415241 0.5730337078651686
0.39200629700007994 0.44894968246213973 0.5701025891548608
0.39220886600014637 0.46165119687347334 0.5701025891548608
0.39241043600031844 0.47435271128480694 0.5613092330239375
0.3926119509997079 0.495847581827064 0.5515388373229115
0.39281370600019727 0.5075720566682951 0.5290669272105519
0.39301457199962897 0.5232046897899365 0.512457254518808
0.3932153819996529 0.5378602833414754 0.4929164631167562
0.3934191190001002 0.5515388373229115 0.486077186126038
0.3936462809997465 0.5574010747435272 0.4753297508549097
0.39385042499998235 0.5613092330239375 0.4753297508549097
0.3940512350000063 0.5632633121641426 0.4782608695652173
0.39425236100032635 0.5632633121641426 0.47435271128480694
0.3944536340004561 0.5564240351734244 0.4733756717147044
0.3946571300002688 0.5534929164631168 0.467513434294089
0.3948704780004846 0.5261358085002443 0.4557889594528579
0.39507269600017025 0.5065950170981925 0.44699560332193444
0.3952758030000041 0.4851001465559355 0.441133365901319
0.39547683500040876 0.46262823644357587 0.4401563263312165
0.39567808999981935 0.44894968246213973 0.43624816805080613
0.39588078999986465 0.43917928676111373 0.4352711284807034
0.39608173000033275 0.4352711284807034 0.43429408891060084
0.3962826890001452 0.4401563263312165 0.4235466536394723
0.3964840179996827 0.4450415241817294 0.4176844162188569
0.39668466199964314 0.4557889594528579 0.4137762579384465
0.3968850100000054 0.4684904738641915 0.4108451392281387
0.39709081999990303 0.47728382999511476 0.4079140205178309
0.39729377900039253 0.47923790913532005 0.412799218368344
0.39749823800048034 0.47728382999511476 0.40889106008793363
0.39770003000012366 0.4684904738641915 0.40986809965803617
0.3979009149998092 0.45481191988275516 0.40889106008793363
0.3981021330000658 0.4460185637518319 0.41182217879824123
0.39830262800023775 0.4352711284807034 0.412799218368344
0.398503420000452 0.431362970200293 0.41182217879824123
0.39870645300015894 0.42940889106008795 0.4059599413776258
0.3989069680001194 0.4255007327796776 0.4040058622374205
0.3991082410002491 0.4264777723497801 0.3981436248168051
0.3993085330002941 0.42452369320957506 0.3913043478260869
0.3995120110002972 0.4264777723497801 0.38641914997557403
0.3997137100004693 0.43429408891060084 0.37957987298485585
0.399914132000049 0.441133365901319 0.37469467513434296
0.4001165170002423 0.44894968246213973 0.3776257938446508
0.40031980900039343 0.46262823644357587 0.3786028334147533
0.40052276700043876 0.48705422569614076 0.38251099169516367
0.40072448499995517 0.5007327796775769 0.38153395212506114
0.4009279259998948 0.5192965315095261 0.3805569125549584
0.40112968100038415 0.5378602833414754 0.38153395212506114
0.4013331950000065 0.5515388373229115 0.38641914997557403
0.40155254199999035 0.5622862725940401 0.3932584269662922
0.40175713100052235 0.5701025891548608 0.4059599413776258
0.4019583489998695 0.5720566682950659 0.412799218368344
0.40215865899972414 0.5613092330239375 0.4264777723497801
0.40235947000019223 0.5495847581827065 0.43429408891060084
0.4025609660002374 0.5300439667806547 0.4460185637518319
0.40276310999979614 0.5153883732291158 0.4509037616023448
0.402964716000497 0.5017098192476794 0.4557889594528579
0.40316537899980176 0.4938935026868587 0.46165119687347334
0.40336681900043914 0.486077186126038 0.467513434294089
0.40356744499968045 0.4851001465559355 0.47728382999511476
0.4037695150000218 0.48216902784562765 0.4831460674157304
0.403972547000194 0.4763067904250122 0.4880312652662433
0.4041734880001968 0.47142159257449934 0.49193942354665365
0.40437424300034763 0.4655593551538837 0.4851001465559355
0.4045748870003081 0.46458231558378116 0.48412310698583294
0.4047747710001204 0.46946751343429405 0.4763067904250122
0.40497537800001737 0.48216902784562765 0.47142159257449934
0.40517580000050657 0.495847581827064 0.467513434294089
0.40537646299981134 0.5085490962383976 0.45969711773326827
0.4055789949998143 0.5192965315095261 0.46165119687347334
0.40578178699979617 0.5144113336590133 0.45676599902296044
0.40598278299967205 0.5105031753786029 0.45481191988275516
0.4061844090001614 0.48998534440644836 0.4557889594528579
0.4063842380001006 0.4763067904250122 0.45188080117244755
0.40658586300014576 0.4557889594528579 0.45188080117244755
0.4067895440002758 0.4401563263312165 0.45676599902296044
0.40698981800051115 0.4255007327796776 0.4538348803126526
0.4071900730004927 0.4157303370786516 0.45481191988275516
0.40739045800000895 0.4059599413776258 0.45188080117244755
0.4075916760002656 0.3932584269662922 0.44992672203224227
0.40779298600045877 0.38153395212506114 0.4460185637518319
0.40799364899976354 0.37176355642403514 0.4450415241817294
0.4081948109997029 0.36687835857352225 0.44211040547142155
0.40839513999981136 0.35906204201270153 0.4401563263312165
0.40859595100027946 0.35417684416218864 0.44406448461162684
0.4087971879998804 0.3551538837322912 0.4479726428920372
0.40899770200030616 0.35417684416218864 0.4587200781631655
0.4091982529998859 0.3551538837322912 0.4655593551538837
0.40939850799986743 0.35222276502198335 0.47435271128480694
0.40959967100025096 0.3561309233023937 0.4802149487054226
0.4098006109998096 0.358085002442599 0.4811919882755251
0.41000121799970657 0.3610161211529066 0.4811919882755251
0.41020284299975174 0.3629702002931119 0.47728382999511476
0.4104034869997122 0.3659013190034197 0.47239863214460187
0.4106046500000957 0.36980947728383007 0.4733756717147044
0.41080592300022545 0.37176355642403514 0.4782608695652173
0.41100693800035515 0.3805569125549584 0.4909623839765511
0.41120780399978685 0.38251099169516367 0.5046409379579873
0.41140885500044533 0.3854421104054715 0.5153883732291158
0.4116096469997501 0.3854421104054715 0.5261358085002443
0.41181067999968946 0.3913043478260869 0.5349291646311676
0.41202034300022206 0.3961895456765998 0.5427454811919883
0.4122216900004787 0.4040058622374205 0.5437225207620908
0.41242188999967766 0.412799218368344 0.5398143624816805
0.41274599400003353 0.4333170493404983 0.5192965315095261
0.4129635640001652 0.4509037616023448 0.5026868588177822
0.41316654100046435 0.46946751343429405 0.4811919882755251
0.4133685919996424 0.48412310698583294 0.45969711773326827
0.4135747549998996 0.49682462139716654 0.43722520762090866
0.4137773250004102 0.5085490962383976 0.4176844162188569
0.41397789399979956 0.5173424523693209 0.4049829018075233
0.4141802789999929 0.5271128480703469 0.403028822667318
0.41438186800041876 0.5349291646311676 0.3952125061064973
0.41458462300033716 0.5378602833414754 0.403028822667318
0.4147861740002554 0.5446995603321934 0.403028822667318
0.414989947000322 0.5437225207620908 0.41475329750854906
0.41519223999966925 0.5437225207620908 0.42256961406936977
0.41539401299996825 0.5476306790425012 0.4303859306301905
0.4155950269996538 0.5466536394723986 0.43429408891060084
0.4157958570003757 0.5476306790425012 0.4401563263312165
0.4160975730001155 0.550561797752809 0.4509037616023448
0.4163131790000989 0.5446995603321934 0.44894968246213973
0.4165193230001023 0.5476306790425012 0.4430874450415241
0.416721225999936 0.550561797752809 0.43722520762090866
0.41692344399962167 0.5495847581827065 0.43722520762090866
0.41712418099996285 0.5456765999022961 0.431362970200293
0.41732486199998675 0.5437225207620908 0.4303859306301905
0.4175285609999264 0.5437225207620908 0.4235466536394723
0.4177558339997631 0.540791402051783 0.4255007327796776
0.4179570149999563 0.533952125061065 0.41963849535906195
0.4181597890001285 0.533952125061065 0.4264777723497801
0.41836048799996206 0.5300439667806547 0.41670737664875435
0.41856181799994374 0.5261358085002443 0.41963849535906195
0.41876431299988326 0.524181729360039 0.4137762579384465
0.4189646419999917 0.5212506106497312 0.40986809965803617
0.41916617500010034 0.5192965315095261 0.40693698094772834
0.41936842999984947 0.5173424523693209 0.40205178309721545
0.41957038900000043 0.5144113336590133 0.40009770395701016
0.41977140299968596 0.5105031753786029 0.4059599413776258
0.4199716029997944 0.5017098192476794 0.40889106008793363
0.42017157999998744 0.4938935026868587 0.4137762579384465
0.42037194600015937 0.48216902784562765 0.41963849535906195
0.42057234999992943 0.47142159257449934 0.42256961406936977
0.4207725679998475 0.46165119687347334 0.42452369320957506
0.4209753229997659 0.4538348803126526 0.42159257449926724
0.4211774850000438 0.4460185637518319 0.4157303370786516
0.421377499999835 0.4401563263312165 0.4108451392281387
0.4215776620003453 0.4352711284807034 0.4040058622374205
0.4217776759996923 0.42940889106008795 0.39912066438690763
0.42197815400049876 0.42256961406936977 0.39716658524670256
0.42217874200014194 0.4157303370786516 0.39716658524670256
0.42237859000033495 0.4049829018075233 0.40693698094772834
0.42257945599976665 0.3952125061064973 0.41963849535906195
0.4227796000004673 0.3854421104054715 0.4323400097703958
0.42298017000030086 0.3756717147044455 0.4401563263312165
0.42318044399962673 0.3639472398632144 0.44699560332193444
0.42338549499982037 0.36199316072300936 0.4460185637518319
0.42358719399999245 0.3610161211529066 0.4479726428920372
0.42378913500033377 0.35710796287249624 0.4430874450415241
0.42399018600008276 0.36003908158280407 0.441133365901319
0.42419118199995864 0.36492427943331696 0.43429408891060084
0.4243919549999191 0.3776257938446508 0.4430874450415241
0.42459200699977373 0.38153395212506114 0.43722520762090866
0.42479283600005147 0.3961895456765998 0.44211040547142155
0.4249933500004772 0.403028822667318 0.4460185637518319
0.425194012999782 0.4079140205178309 0.45188080117244755
0.42539504599972133 0.40693698094772834 0.4557889594528579
0.425595949000126 0.40986809965803617 0.45969711773326827
0.4257974820002346 0.4049829018075233 0.46458231558378116
0.4259982740004489 0.4040058622374205 0.4665363947239862
0.42619782499969006 0.39716658524670256 0.47142159257449934
0.42639843200049654 0.39423546653639474 0.4753297508549097
0.42659877999994933 0.38641914997557403 0.4831460674157304
0.4267998129998887 0.37957987298485585 0.4811919882755251
0.42700117900039913 0.3756717147044455 0.48705422569614076
0.42720463699970423 0.36980947728383007 0.4880312652662433
0.42740513300032035 0.36492427943331696 0.48998534440644836
0.4276056110002173 0.3629702002931119 0.4929164631167562
0.4278058290001354 0.358085002442599 0.48900830483634583
0.42800982399967324 0.35710796287249624 0.4929164631167562
0.4282148940001207 0.3551538837322912 0.486077186126038
0.42841600100018695 0.35222276502198335 0.48412310698583294
0.4286176080004225 0.35222276502198335 0.486077186126038
0.42881806700006564 0.3502686858817783 0.4851001465559355
0.4290190629999415 0.3512457254518808 0.4880312652662433
0.42922053999973286 0.3502686858817783 0.48705422569614076
0.42942223899990495 0.3502686858817783 0.4909623839765511
0.42964540100001614 0.35417684416218864 0.48998534440644836
0.42984687900025165 0.3551538837322912 0.4909623839765511
0.43004722600016976 0.36492427943331696 0.495847581827064
0.4302487410004687 0.36492427943331696 0.4929164631167562
0.43044882899994263 0.37176355642403514 0.49193942354665365
0.4306490839999242 0.376648754274548 0.49193942354665365
0.43084922799971537 0.3834880312652662 0.48900830483634583
0.43105015000037383 0.3854421104054715 0.4880312652662433
0.4312497569999323 0.3903273082559844 0.48998534440644836
0.43145078999987163 0.3961895456765998 0.4948705422569615
0.43165284099995915 0.39912066438690763 0.4880312652662433
0.4318542629998774 0.4079140205178309 0.48705422569614076
0.43205440699966857 0.40986809965803617 0.48412310698583294
0.43225527300000977 0.4235466536394723 0.48412310698583294
0.43245773200033 0.4333170493404983 0.4811919882755251
0.4326582829999097 0.44699560332193444 0.47728382999511476
0.43285903800006054 0.457743038593063 0.46458231558378116
0.4330598300002748 0.4763067904250122 0.4538348803126526
0.43326060399976996 0.49193942354665365 0.44211040547142155
0.4334615260004284 0.5056179775280898 0.4303859306301905
0.43366215100013505 0.5163654127992183 0.4186614557889594
0.433864110000286 0.5271128480703469 0.4108451392281387
0.4340646979999292 0.5319980459208598 0.40009770395701016
0.4342650460002915 0.5359062042012701 0.39423546653639474
0.4344656900002519 0.540791402051783 0.38739618954567656
0.43466662999981054 0.540791402051783 0.37469467513434296
0.4348691820005115 0.5417684416218858 0.3610161211529066
0.4350705850001759 0.5437225207620908 0.34929164631167553
0.4352714510005171 0.5466536394723986 0.3424523693209576
0.43547298399971623 0.5456765999022961 0.34440644846116264
0.4356740909997825 0.5466536394723986 0.36003908158280407
0.4358753460001026 0.5437225207620908 0.3913043478260869
0.4360757120002745 0.5476306790425012 0.4264777723497801
0.4362765779997062 0.5417684416218858 0.4704445530043966
0.43647664800027997 0.5319980459208598 0.5095261358085001
0.4366777360000924 0.5290669272105519 0.5427454811919883
0.4368816579999475 0.5192965315095261 0.5661944308744504
0.43708295000033104 0.512457254518808 0.5779189057156815
0.4372848160001013 0.512457254518808 0.578895945285784
0.4374875339999562 0.5095261358085001 0.5720566682950659
0.4376898820000861 0.5114802149487054 0.5544699560332194
0.43789021100019454 0.5163654127992183 0.5368832437713726
0.4380913180002608 0.524181729360039 0.5153883732291158
0.4382918139999674 0.5329750854909623 0.48900830483634583
0.43849206899994897 0.540791402051783 0.4636052760136786
0.4386929539996345 0.5417684416218858 0.4401563263312165
0.4388935240003775 0.5437225207620908 0.42452369320957506
0.439094297000338 0.5456765999022961 0.40986809965803617
0.4392948670001715 0.5486077186126037 0.403028822667318
0.43949680700006866 0.5554469956033219 0.39716658524670256
0.4396979700004522 0.5486077186126037 0.3913043478260869
0.43989881699963007 0.5466536394723986 0.38739618954567656
0.4400996100002885 0.5427454811919883 0.38446507083536874
0.44029984600001626 0.5388373229115779 0.38446507083536874
0.4405001200002516 0.5359062042012701 0.38641914997557403
0.4407013560003179 0.5271128480703469 0.38739618954567656
0.44090279700048995 0.5232046897899365 0.38739618954567656
0.44110418099990056 0.5202735710796287 0.38739618954567656
0.4414857290003056 0.512457254518808 0.3805569125549584
0.44171255699984613 0.5056179775280898 0.3786028334147533
0.4419147939997856 0.49877870053737183 0.37957987298485585
0.44211588200050755 0.4880312652662433 0.3834880312652662
0.442318878000151 0.4753297508549097 0.38739618954567656
0.4425262439999642 0.4587200781631655 0.403028822667318
0.4427452580002864 0.44211040547142155 0.4137762579384465
0.44296125399978337 0.42256961406936977 0.42940889106008795
0.44318017499972484 0.4079140205178309 0.4382022471910112
0.4433977260005122 0.3952125061064973 0.44211040547142155
0.4436390170003506 0.38153395212506114 0.44406448461162684
0.44386391999978514 0.37469467513434296 0.44699560332193444
0.4440911560004679 0.3639472398632144 0.44894968246213973
0.44431274399994436 0.358085002442599 0.4479726428920372
0.44460949699987395 0.3551538837322912 0.45676599902296044
0.4448379550003665 0.3502686858817783 0.4636052760136786
0.4451043569997637 0.35710796287249624 0.4880312652662433
0.44539088800047466 0.35222276502198335 0.524181729360039
0.4457587320002858 0.35417684416218864 0.5388373229115779
0.4460274120001486 0.35906204201270153 0.5388373229115779
0.4464138109997293 0.3629702002931119 0.5251587689301416
0.4466704540000137 0.3688324377137273 0.5144113336590133
0.4469317080001929 0.36687835857352225 0.5007327796775769
0.44731112600038614 0.3659013190034197 0.5017098192476794
0.4475521029999072 0.3629702002931119 0.5007327796775769
0.44777496799997607 0.3551538837322912 0.4978016609672691
0.4479919819996212 0.3404982901807523 0.49193942354665365
0.44830093899963686 0.3287738153395212 0.48412310698583294
0.4485269899996638 0.32193453834880303 0.4704445530043966
0.4487352080004712 0.3180263800683927 0.4606741573033708
0.4489351849997547 0.31704934049829014 0.45481191988275516
0.4491345699998419 0.31998045920859797 0.45481191988275516
0.4493353620000562 0.31704934049829014 0.45481191988275516
0.44957117200010543 0.3238886174890083 0.45481191988275516
0.449777296999855 0.3238886174890083 0.4557889594528579
0.44997564500044973 0.3287738153395212 0.457743038593063
0.45017495499996585 0.3365901319003419 0.4587200781631655
0.4503858210000544 0.34440644846116264 0.45969711773326827
0.4505891690005228 0.35222276502198335 0.4665363947239862
0.4507925540001452 0.3561309233023937 0.4733756717147044
0.4509923269997671 0.3561309233023937 0.4763067904250122
0.45119089699983306 0.3561309233023937 0.4802149487054226
0.4513898369996241 0.35710796287249624 0.48216902784562765
0.4515885000000708 0.35906204201270153 0.4811919882755251
0.45178693999969255 0.36492427943331696 0.47923790913532005
0.45198495499971614 0.3756717147044455 0.4753297508549097
0.4521828209999512 0.38153395212506114 0.4733756717147044
0.452380945999721 0.4010747435271129 0.47435271128480694
0.4525779240002521 0.4157303370786516 0.4733756717147044
0.45277545699991606 0.43624816805080613 0.467513434294089
0.45297293400017224 0.457743038593063 0.45969711773326827
0.45317042999977275 0.4811919882755251 0.4557889594528579
0.4533687960001771 0.5026868588177822 0.45188080117244755
0.4535825700004352 0.5192965315095261 0.4479726428920372
0.45378371300012077 0.5378602833414754 0.45676599902296044
0.45398333899993304 0.5564240351734244 0.457743038593063
0.45418122400042193 0.5749877870053737 0.45676599902296044
0.4543801830004668 0.5837811431362969 0.4587200781631655
0.45458321499972953 0.5808500244259893 0.45969711773326827
0.4547979330000089 0.5798729848558866 0.4587200781631655
0.45505044600031397 0.5779189057156815 0.4509037616023448
0.45532177400036744 0.5808500244259893 0.44406448461162684
0.455596138999681 0.5867122618466047 0.4382022471910112
0.4558674660001998 0.5837811431362969 0.431362970200293
0.4561689419997492 0.5906204201270151 0.42940889106008795
0.45645201000024826 0.6003908158280411 0.4255007327796776
0.45672020799975144 0.6072300928187591 0.4255007327796776
0.45694507400003204 0.6170004885197851 0.41670737664875435
0.4571615880004174 0.6209086468001954 0.42256961406936977
0.45737406500029465 0.6248168050806058 0.40889106008793363
0.4576457630000732 0.621885686370298 0.40693698094772834
0.45792344199981017 0.6130923302393747 0.4079140205178309
0.45817528899988247 0.6042989741084515 0.4108451392281387
0.4583825620002244 0.5964826575476307 0.4108451392281387
0.45858189099999436 0.595505617977528 0.4049829018075233
0.45877988699976413 0.5906204201270151 0.403028822667318
0.4589824390004651 0.5876893014167073 0.4010747435271129
0.4591819899997063 0.5837811431362969 0.3961895456765998
0.459380023000449 0.576941866145579 0.3952125061064973
0.4595783519998804 0.5720566682950659 0.39716658524670256
0.4597773289997349 0.5632633121641426 0.3932584269662922
0.4599850840004365 0.5544699560332194 0.3981436248168051
0.46018274699963513 0.5398143624816805 0.40693698094772834
0.46038246500029345 0.5300439667806547 0.4049829018075233
0.4605802570004016 0.522227650219834 0.4108451392281387
0.46078525299981266 0.5095261358085001 0.40986809965803617
0.46099071099979483 0.49877870053737183 0.4108451392281387
0.46118887400007225 0.48998534440644836 0.4108451392281387
0.46139568499984307 0.48412310698583294 0.4108451392281387
0.4616475310003807 0.4753297508549097 0.4108451392281387
0.46192598800007545 0.4684904738641915 0.4079140205178309
0.46215057599965803 0.4587200781631655 0.4049829018075233
0.46235277600044355 0.4430874450415241 0.4059599413776258
0.4625527719999809 0.4255007327796776 0.41182217879824123
0.4627518229999623 0.4040058622374205 0.4206155349291647
0.4629536519996691 0.38739618954567656 0.4303859306301905
0.46315281500028505 0.3737176355642404 0.44211040547142155
